Format Version,1.0,
Take Name,TrunkStability_DS_MOCAP_Raw_6,
Capture Frame Rate,1920.00,
Export Frame Rate,120.00,
Capture Start Time,09 Aug 2021 09:19:06 -0400,
Total Frames In Take,1947,
Total Exported Frames,31152,
Coordinate Space,Local,
Device Name,NIDAQ USB-6343 (BNC) 31369206,
Device Type,1,
Device Channel Count,10,
Mocap Rate,120.00,
Mocap Rate Multiple,16.00

MocapFrame, MocapTime, DeviceFrame,ESR,ESL,IntOblR,IntOblL,LatR,LatL,AbsR,AbsL,ExtOblR,ExtOblL
0,0.000000,0,-0.009910,-0.010567,0.018343,0.024256,0.004217,-0.002682,-0.029292,0.027541,-0.012538,0.029512
0,0.000000,1,-0.011881,-0.016151,0.019985,0.021628,0.002902,-0.008267,-0.020751,0.026884,-0.001368,0.013086
0,0.000000,2,-0.019765,-0.015494,0.019657,0.024256,0.007173,-0.003011,-0.029292,0.027541,0.022942,0.000274
0,0.000000,3,-0.017794,-0.019765,0.020314,0.024256,0.012429,-0.000711,-0.026993,0.022613,-0.016151,0.033783
0,0.000000,4,-0.019108,-0.018123,0.023599,0.023599,0.017029,0.002245,-0.027978,0.022613,0.002245,-0.012866
0,0.000000,5,-0.021736,-0.014837,0.024256,0.024585,0.005531,0.011772,-0.027650,0.022942,-0.000383,0.011772
0,0.000000,6,-0.026007,-0.011552,0.022613,0.027213,0.008816,0.004545,-0.029949,0.027870,0.018671,0.017029
0,0.000000,7,-0.017466,-0.014509,0.022942,0.028527,0.007830,0.006516,-0.031263,0.018343,0.037068,0.016372
0,0.000000,8,-0.014509,-0.007610,0.022613,0.028527,0.004545,0.007502,-0.031592,0.021299,0.001588,0.007502
0,0.000000,9,-0.010567,-0.005967,0.019657,0.021956,0.009473,0.005202,-0.030935,0.022285,0.025570,0.015715
0,0.000000,10,-0.007939,-0.005310,0.019328,0.023270,-0.001368,0.000603,-0.024364,0.020971,0.025899,0.023270
0,0.000000,11,-0.001368,-0.006953,0.021628,0.022942,0.004217,0.002902,-0.026664,0.011772,0.024256,0.025899
0,0.000000,12,-0.000383,-0.004982,0.022285,0.022942,0.006516,0.000931,-0.030606,0.023599,0.019985,0.027541
0,0.000000,13,0.008159,0.001260,0.022285,0.024256,0.007502,-0.003011,-0.027978,0.027870,0.007830,0.031155
0,0.000000,14,0.013744,0.009144,0.016700,0.023928,0.008487,0.000274,-0.030278,0.021628,0.044953,0.024913
0,0.000000,15,0.015715,0.010458,0.022942,0.022942,0.006516,-0.002354,-0.027650,0.024256,0.030826,0.035097
1,0.008333,16,0.014729,0.006516,0.022942,0.024913,0.003560,-0.001040,-0.031263,0.021628,0.027213,0.034112
1,0.008333,17,0.010130,0.001588,0.027870,0.025570,0.006845,0.003231,-0.030278,0.023928,0.015386,0.057765
1,0.008333,18,0.005531,0.000274,0.018671,0.027541,0.014401,0.009144,-0.031263,0.023599,0.031155,0.041996
1,0.008333,19,0.003231,-0.000383,0.021299,0.027870,0.011115,-0.000054,-0.029949,0.022942,0.029512,0.038382
1,0.008333,20,0.003231,-0.004325,0.020642,0.025570,0.009801,0.006845,-0.029292,0.025242,0.026884,0.040353
1,0.008333,21,-0.011881,-0.001040,0.018671,0.024256,0.013086,0.002245,-0.026664,0.029512,0.018343,0.041667
1,0.008333,22,-0.009910,-0.009910,0.019000,0.026227,0.015715,0.001260,-0.028307,0.024913,0.057765,0.029841
1,0.008333,23,-0.004982,-0.007939,0.018343,0.026884,0.015386,-0.000054,-0.027650,0.029512,0.035754,0.045610
1,0.008333,24,0.002902,-0.006296,0.019000,0.028527,0.017686,-0.013852,-0.027650,0.026556,0.023928,0.034769
1,0.008333,25,0.012101,-0.004653,0.020314,0.025570,0.007830,-0.001697,-0.025678,0.026556,-0.007282,0.017686
1,0.008333,26,0.001917,-0.009581,0.020314,0.022942,0.009801,-0.008267,-0.030935,0.027541,-0.009581,0.024585
1,0.008333,27,0.004217,-0.015166,0.018343,0.019000,0.009801,-0.008267,-0.027321,0.024913,0.001917,0.029184
1,0.008333,28,0.002902,-0.013852,0.018671,0.026556,0.000603,-0.007610,-0.029949,0.026227,0.004545,0.002574
1,0.008333,29,0.002245,-0.013195,0.017357,0.020642,0.009144,-0.003668,-0.026007,0.023599,0.005859,0.006188
1,0.008333,30,-0.004325,-0.006953,0.014729,0.021628,0.005859,-0.009581,-0.031592,0.026227,0.010130,-0.001697
1,0.008333,31,0.001260,-0.003668,0.004217,0.026556,0.005531,-0.008267,-0.027978,0.023599,-0.004982,-0.000383
2,0.016667,32,-0.001040,-0.005639,0.019000,0.017357,0.008159,-0.008924,-0.030278,0.022942,0.000931,-0.009253
2,0.016667,33,-0.003011,-0.013195,0.014401,0.023599,0.003888,-0.011224,-0.032906,0.022613,0.004874,0.011444
2,0.016667,34,-0.000383,-0.015166,0.014729,0.021956,0.005531,-0.013523,-0.028635,0.018343,0.000931,0.004874
2,0.016667,35,0.003231,-0.015494,0.014729,0.021956,0.006516,-0.009253,-0.028635,0.019985,0.006516,-0.008596
2,0.016667,36,0.001260,-0.023707,0.023599,0.019985,0.007502,-0.008596,-0.026993,0.021956,-0.013852,0.004545
2,0.016667,37,0.000603,-0.034877,0.016043,0.018343,0.009144,-0.004653,-0.027321,0.021628,0.027213,0.017029
2,0.016667,38,0.000931,-0.034548,0.018671,0.016043,0.004874,0.002574,-0.028964,0.025242,0.009801,0.033783
2,0.016667,39,0.003231,-0.028964,0.019657,0.007830,0.006188,0.007173,-0.028307,0.027213,0.017686,0.017029
2,0.016667,40,0.008487,-0.023379,0.016700,0.014072,0.005531,0.009473,-0.023379,0.022613,0.009473,0.016372
2,0.016667,41,0.000274,-0.019765,0.016372,0.017029,0.003560,0.006516,-0.024693,0.029184,0.011115,0.020971
2,0.016667,42,0.000603,-0.015494,0.017686,0.007502,0.005859,0.000931,-0.024036,0.027870,0.019657,0.021299
2,0.016667,43,0.001588,-0.012209,0.019657,0.013744,0.005531,0.000603,-0.026664,0.025242,0.019657,0.031812
2,0.016667,44,0.007502,-0.009253,0.020642,0.015058,0.007830,0.001917,-0.026993,0.022613,0.016372,0.025899
2,0.016667,45,0.004874,-0.001040,0.019328,0.017029,0.008159,0.000931,-0.027978,0.022942,0.015715,0.024585
2,0.016667,46,0.003231,0.001588,0.015386,0.019985,0.008487,0.003560,-0.029292,0.024585,0.033126,0.006845
2,0.016667,47,0.003888,0.003560,0.021628,0.011444,0.013086,0.002902,-0.029621,0.024913,0.031483,0.034440
3,0.025000,48,0.001917,0.001917,0.017029,0.020971,0.012429,0.003560,-0.030278,0.026556,0.037725,0.049880
3,0.025000,49,0.011115,-0.001697,0.019985,0.020642,0.010787,0.006516,-0.027978,0.025242,0.035754,0.046924
3,0.025000,50,0.005531,-0.007282,0.019657,0.020971,0.012101,0.006845,-0.025678,0.022613,0.016043,0.052180
3,0.025000,51,0.009801,-0.003668,0.010787,0.023599,0.014072,0.004217,-0.026993,0.019328,0.027213,0.067292
3,0.025000,52,0.006845,-0.005310,0.017357,0.024585,0.012758,-0.000383,-0.026664,0.018671,0.031812,0.041010
3,0.025000,53,0.004217,-0.001040,0.017686,0.023928,0.006188,0.001917,-0.030606,0.019657,0.027541,0.043310
3,0.025000,54,-0.002025,-0.004325,0.015715,0.023599,0.004217,-0.006624,-0.034548,0.026227,0.043310,0.047581
3,0.025000,55,0.005531,-0.009581,0.017029,0.025570,0.001917,-0.005310,-0.035205,0.015715,0.033126,0.041010
3,0.025000,56,0.004874,-0.000054,0.013744,0.019985,0.003560,-0.001040,-0.034548,0.019657,0.019000,0.028855
3,0.025000,57,0.006845,-0.002025,0.014729,0.023599,0.009473,-0.005310,-0.030606,0.019000,0.022285,0.022285
3,0.025000,58,0.005531,0.000603,0.013744,0.026227,0.004874,-0.006624,-0.026335,0.019657,0.014072,0.015715
3,0.025000,59,0.002574,-0.001697,0.017357,0.023270,0.009473,-0.008596,-0.031263,0.022285,0.026227,0.026227
3,0.025000,60,0.006516,-0.004325,0.022285,0.026227,0.009801,-0.006624,-0.029949,0.021299,0.010458,0.041996
3,0.025000,61,0.004874,-0.006624,0.010458,0.035754,0.009801,-0.006953,-0.028964,0.020314,0.010458,0.020314
3,0.025000,62,0.008159,-0.004325,0.011772,0.025570,0.011444,-0.011552,-0.027978,0.020642,0.007173,0.008487
3,0.025000,63,0.006845,-0.000054,0.012429,0.026884,0.010130,0.003888,-0.040133,0.022942,0.002245,0.007830
4,0.033333,64,0.008159,0.002574,0.006516,0.025570,0.013744,0.002245,-0.026993,0.021956,0.000274,0.001917
4,0.033333,65,0.008159,0.006516,0.020314,0.025899,0.011772,-0.001040,-0.028964,0.023928,0.008159,-0.010567
4,0.033333,66,0.011444,0.003231,0.015715,0.022285,0.009473,-0.006624,-0.029949,0.022942,0.009144,-0.001368
4,0.033333,67,0.013744,-0.003668,0.017029,0.022942,0.006188,-0.002354,-0.029949,0.022942,0.005859,0.005859
4,0.033333,68,0.005859,-0.006296,0.015386,0.024913,0.007830,-0.007282,-0.029621,0.021956,0.009473,0.005531
4,0.033333,69,0.007830,-0.004982,0.017029,0.025242,0.009801,-0.007282,-0.030278,0.021299,0.006188,0.015058
4,0.033333,70,0.005531,-0.001368,0.018671,0.022942,0.006845,-0.004982,-0.027978,0.023599,0.005202,0.037397
4,0.033333,71,-0.000383,0.001588,0.019328,0.022942,0.007502,-0.006296,-0.027978,0.022942,0.023599,0.006845
4,0.033333,72,-0.008924,-0.004325,0.020642,0.020971,0.000931,-0.015494,-0.030278,0.022285,0.015715,0.019985
4,0.033333,73,-0.010567,-0.004653,0.019328,0.024256,-0.002025,-0.010567,-0.028635,0.025899,0.003560,0.018014
4,0.033333,74,-0.017794,0.002574,0.021956,0.022613,0.000603,-0.006624,-0.028964,0.024913,0.037068,0.025899
4,0.033333,75,-0.008924,-0.000711,0.028855,0.019328,0.002245,-0.003339,-0.030606,0.022613,0.020971,0.019657
4,0.033333,76,-0.008267,-0.002354,0.023599,0.026884,-0.005967,0.002574,-0.030278,0.021956,0.025899,0.026227
4,0.033333,77,-0.013195,-0.006624,0.023599,0.024913,0.005202,0.000274,-0.028307,0.020642,0.023928,0.040025
4,0.033333,78,-0.015823,-0.013523,0.021628,0.026227,0.003888,0.003231,-0.026664,0.017686,0.000931,0.032469
4,0.033333,79,-0.031263,-0.018780,0.010787,0.027870,0.002574,-0.000383,-0.030278,0.023270,0.026556,0.036411
5,0.041667,80,-0.032577,-0.027650,0.022613,0.024256,0.003560,0.001260,-0.028964,0.022285,0.018014,0.054151
5,0.041667,81,-0.020422,-0.023707,0.026884,0.023599,0.005202,-0.007939,-0.027978,0.023270,0.011772,0.038054
5,0.041667,82,-0.005967,-0.019437,0.030169,0.019985,0.002574,-0.003011,-0.026664,0.022285,0.014401,0.036411
5,0.041667,83,0.004217,-0.023050,0.031155,0.020314,0.007502,-0.000383,-0.027978,0.018014,0.014729,0.029512
5,0.041667,84,0.002245,-0.021736,0.034440,0.022613,0.009801,-0.002682,-0.031263,0.027870,0.015715,0.016043
5,0.041667,85,-0.000383,-0.020751,0.030498,0.016700,0.009801,-0.005639,-0.030278,0.023270,0.019000,0.045938
5,0.041667,86,-0.002682,-0.015823,0.027213,0.023270,0.012101,-0.002025,-0.030935,0.024585,0.007502,0.042653
5,0.041667,87,-0.011552,-0.012209,0.026227,0.023270,0.012758,-0.005967,-0.032577,0.022942,0.025242,0.038711
5,0.041667,88,0.004874,-0.023050,0.032797,0.021299,0.013415,-0.004653,-0.025350,0.019657,0.022942,0.031483
5,0.041667,89,0.000931,-0.010238,0.036740,0.017686,0.015058,-0.003011,-0.026993,0.024256,0.011444,0.030826
5,0.041667,90,-0.003668,-0.011552,0.032140,0.025242,0.015715,-0.001368,-0.029292,0.023928,0.008487,0.024585
5,0.041667,91,-0.007939,-0.010895,0.028527,0.023928,0.017029,-0.002354,-0.030935,0.021956,0.008159,0.025899
5,0.041667,92,-0.017794,-0.006624,0.027213,0.024585,0.014729,-0.005967,-0.031920,0.023599,0.016043,0.016372
5,0.041667,93,-0.008596,-0.005639,0.022613,0.024256,0.011772,-0.003996,-0.026993,0.017357,0.003560,-0.000054
5,0.041667,94,-0.006624,-0.002354,0.015058,0.025899,0.011115,-0.002682,-0.026993,0.020642,-0.011552,0.035097
5,0.041667,95,-0.006296,-0.004653,0.016043,0.025570,0.009144,-0.002025,-0.027978,0.022613,0.002574,0.005859
6,0.050000,96,-0.003668,-0.003339,0.014401,0.029184,0.007173,0.000603,-0.030278,0.024585,-0.003996,0.004874
6,0.050000,97,0.000274,-0.003668,0.013086,0.026227,0.008159,-0.002682,-0.034220,0.022613,-0.003668,0.006188
6,0.050000,98,0.006516,-0.006953,0.014729,0.026227,0.006516,-0.005310,-0.031263,0.020971,0.017357,0.001260
6,0.050000,99,0.011444,0.002245,0.014729,0.029184,0.004545,-0.004325,-0.029621,0.025899,0.012101,-0.019437
6,0.050000,100,0.019328,0.009144,0.017357,0.023928,0.003888,-0.001368,-0.030606,0.025899,0.009473,0.009144
6,0.050000,101,0.018343,0.006516,0.016700,0.027541,0.005531,-0.008596,-0.030606,0.022285,-0.002354,0.009144
6,0.050000,102,0.006516,0.001588,0.012101,0.026884,0.001588,-0.002682,-0.031920,0.029841,0.014729,0.023928
6,0.050000,103,0.003231,-0.007939,0.012758,0.024913,0.004217,-0.001368,-0.027650,0.021628,0.002245,0.022942
6,0.050000,104,0.002245,-0.009581,0.013086,0.031812,0.000931,0.004217,-0.028964,0.024256,0.008487,0.011115
6,0.050000,105,0.004217,-0.015494,0.016372,0.028198,-0.003668,0.007173,-0.025678,0.023270,0.024585,0.031155
6,0.050000,106,0.005202,-0.016151,0.015386,0.023270,0.008159,0.010787,-0.033891,0.023599,0.023599,0.033783
6,0.050000,107,-0.003339,-0.015166,0.014729,0.022613,0.007173,0.008816,-0.031263,0.027870,0.029184,0.037068
6,0.050000,108,0.002245,-0.017466,0.012429,0.018014,0.006188,0.006516,-0.030935,0.023599,0.036740,0.024585
6,0.050000,109,-0.000054,-0.017137,0.017029,0.018343,0.006845,0.009473,-0.030606,0.024256,0.022613,0.034769
6,0.050000,110,-0.004982,-0.021736,0.016372,0.016043,0.003888,0.012758,-0.031592,0.026556,0.035426,0.053165
6,0.050000,111,-0.003011,-0.024364,0.017686,0.018343,0.004545,0.001260,-0.023379,0.024256,0.041996,0.050209
7,0.058333,112,-0.000711,-0.031263,0.019000,0.018014,0.006516,0.002902,-0.031263,0.021299,0.035097,0.053494
7,0.058333,113,0.000931,-0.021408,0.018343,0.016372,0.008487,0.000603,-0.030278,0.020642,0.019657,0.093573
7,0.058333,114,0.002902,-0.016151,0.021628,0.018014,0.010458,-0.001368,-0.031592,0.022613,0.024256,0.053822
7,0.058333,115,-0.000711,-0.010895,0.019657,0.021956,0.002574,0.004545,-0.032577,0.021628,0.023270,0.056451
7,0.058333,116,0.003560,-0.009581,0.021299,0.019657,0.005531,-0.006624,-0.030935,0.020971,0.020971,0.044953
7,0.058333,117,-0.003011,-0.008596,0.020971,0.014072,0.005531,-0.009581,-0.029949,0.021628,0.034769,0.050866
7,0.058333,118,-0.007610,-0.007610,0.020642,0.016372,0.005859,-0.007282,-0.030278,0.021299,0.004545,0.075833
7,0.058333,119,-0.009910,-0.007939,0.019000,0.015715,0.012101,-0.004982,-0.029949,0.024913,0.017686,0.032797
7,0.058333,120,-0.010567,-0.007282,0.019328,0.018014,-0.002354,0.003231,-0.029621,0.024913,0.013086,0.037725
7,0.058333,121,-0.003668,-0.006624,0.020642,0.019657,-0.000054,-0.005310,-0.027978,0.015715,0.013415,0.023928
7,0.058333,122,-0.004653,-0.001040,0.017686,0.021956,-0.001368,-0.003339,-0.032249,0.024913,0.041667,0.018671
7,0.058333,123,-0.001697,-0.006624,0.014729,0.027541,0.001917,-0.003668,-0.030278,0.022942,0.010130,0.011772
7,0.058333,124,-0.001040,-0.003011,0.016372,0.020314,0.004217,-0.003668,-0.030278,0.023928,0.014729,0.011115
7,0.058333,125,0.002245,-0.003996,0.020314,0.023599,0.009801,0.001588,-0.037834,0.021956,0.007502,0.008159
7,0.058333,126,0.005859,-0.004653,0.022285,0.024913,0.007502,-0.001697,-0.029292,0.011115,0.004217,0.001917
7,0.058333,127,0.001917,-0.004982,0.027541,0.026556,0.008816,0.000274,-0.032577,0.021628,-0.000383,-0.006296
8,0.066667,128,0.002574,-0.005967,0.017029,0.028527,0.006845,0.001917,-0.033563,0.018014,0.008487,0.014401
8,0.066667,129,0.003560,-0.004325,0.017686,0.027213,0.010787,-0.008267,-0.032249,0.020971,0.000931,-0.014837
8,0.066667,130,0.002245,-0.001697,0.017357,0.027213,0.009473,0.004545,-0.039805,0.023599,-0.000383,-0.006296
8,0.066667,131,0.002902,0.005531,0.018343,0.029841,0.012101,0.005531,-0.032249,0.022613,0.025242,-0.008924
8,0.066667,132,0.004545,0.004217,0.012429,0.030826,0.013744,0.003888,-0.029949,0.021299,0.025570,-0.010238
8,0.066667,133,0.007173,0.004874,0.022285,0.033126,-0.000383,0.002245,-0.029292,0.022942,0.001917,-0.000383
8,0.066667,134,0.006188,0.002902,0.020314,0.032140,0.012101,-0.010567,-0.026664,0.025899,0.015386,0.005202
8,0.066667,135,0.009144,0.001588,0.018671,0.029184,0.008159,0.002245,-0.021079,0.028855,-0.014509,0.004217
8,0.066667,136,0.003888,0.003231,0.017029,0.028527,0.014072,-0.003011,-0.026993,0.026556,-0.010567,0.014729
8,0.066667,137,0.006516,0.002902,0.018671,0.016043,0.018014,-0.001368,-0.024693,0.025899,0.012429,0.019000
8,0.066667,138,0.004874,0.000603,0.013415,0.026227,0.015715,0.000931,-0.028635,0.024256,0.019657,0.026227
8,0.066667,139,0.005531,-0.000383,0.013744,0.028527,0.010458,0.001260,-0.027978,0.023599,0.031483,0.021956
8,0.066667,140,0.004545,-0.000383,0.013744,0.026884,0.006188,-0.000054,-0.031920,0.023599,0.042653,0.048238
8,0.066667,141,0.010458,-0.000054,0.014401,0.030169,0.006188,0.000931,-0.029949,0.019000,0.031483,0.055137
8,0.066667,142,0.009144,-0.001368,0.014401,0.027870,0.008816,-0.001040,-0.029621,0.021628,0.042653,0.056779
8,0.066667,143,0.005531,-0.001368,0.019328,0.031155,0.011115,-0.001040,-0.029621,0.021299,0.036411,0.060393
9,0.075000,144,0.004874,-0.003996,0.018014,0.024913,0.013086,-0.002354,-0.024364,0.020642,0.038382,0.062035
9,0.075000,145,-0.003668,-0.001368,0.015058,0.027213,0.013744,-0.003011,-0.031263,0.023599,0.052180,0.070248
9,0.075000,146,0.011772,0.000603,0.005859,0.026227,0.012758,-0.001040,-0.027321,0.027541,0.041339,0.068606
9,0.075000,147,0.004217,-0.005639,0.016700,0.028855,0.010787,-0.000383,-0.029621,0.026884,0.045938,0.047909
9,0.075000,148,0.000603,-0.005639,0.014729,0.021299,0.009473,0.000931,-0.031592,0.026556,0.035426,0.066963
9,0.075000,149,-0.000383,-0.007610,0.018014,0.022613,0.012101,0.003888,-0.032577,0.023599,0.035426,0.052837
9,0.075000,150,-0.001368,-0.007610,0.010130,0.024585,0.008159,-0.002025,-0.030606,0.022942,0.023270,0.052180
9,0.075000,151,-0.003011,-0.012866,0.019985,0.022613,0.006516,-0.002682,-0.029621,0.024256,0.002574,0.042653
9,0.075000,152,-0.006624,-0.021408,0.019328,0.014072,0.008159,-0.003996,-0.029292,0.023599,0.025899,0.042653
9,0.075000,153,-0.005310,-0.021408,0.021299,0.017686,0.004545,-0.001368,-0.028635,0.025570,0.012758,0.037725
9,0.075000,154,-0.015494,-0.020422,0.020971,0.017357,0.009473,0.000274,-0.031592,0.027541,0.026556,0.032797
9,0.075000,155,-0.003011,-0.015823,0.020314,0.016700,0.009473,-0.000054,-0.026664,0.025570,0.008816,0.023270
9,0.075000,156,-0.007282,-0.018780,0.020314,0.020314,0.008487,-0.003668,-0.026664,0.027870,0.016043,-0.003011
9,0.075000,157,-0.010895,-0.016480,0.022942,0.011115,0.011115,-0.006296,-0.027321,0.027213,0.010787,0.012758
9,0.075000,158,-0.017137,-0.017794,0.022613,0.018671,0.011115,-0.005639,-0.026335,0.027541,0.010458,0.012758
9,0.075000,159,-0.010567,-0.025678,0.024913,0.015715,0.009144,-0.008596,-0.026993,0.026227,0.025899,0.017686
10,0.083333,160,-0.016151,-0.021736,0.027870,0.013415,0.006845,-0.006296,-0.029621,0.025570,0.014729,0.018343
10,0.083333,161,-0.014180,-0.022722,0.016700,0.017686,0.000931,-0.003339,-0.029949,0.022285,0.011444,0.019985
10,0.083333,162,-0.014837,-0.026664,0.023928,0.021956,-0.001040,-0.002682,-0.030606,0.022285,0.006516,0.003560
10,0.083333,163,-0.017137,-0.022393,0.023270,0.022285,-0.001368,0.008487,-0.030278,0.023928,0.006516,0.010130
10,0.083333,164,-0.019765,-0.014837,0.021628,0.025570,0.003888,0.002245,-0.028964,0.024913,0.022613,0.005859
10,0.083333,165,-0.005639,-0.010895,0.021628,0.026884,0.008159,0.003560,-0.030278,0.023270,0.007173,0.020642
10,0.083333,166,-0.000054,0.001917,0.021299,0.031812,0.009473,0.002902,-0.027321,0.023270,0.001260,0.043967
10,0.083333,167,0.004545,0.003888,0.023270,0.031483,0.005531,0.000931,-0.026993,0.024256,0.011115,0.012429
10,0.083333,168,0.003560,0.007173,0.021956,0.028855,0.005859,0.001260,-0.028307,0.024256,0.013086,0.016372
10,0.083333,169,0.005531,0.006188,0.020971,0.027870,0.003560,0.000274,-0.022065,0.023599,0.027213,0.015386
10,0.083333,170,0.004545,-0.000711,0.018343,0.030169,0.002245,0.004545,-0.031592,0.021628,0.027541,0.025899
10,0.083333,171,0.002245,0.000274,0.020642,0.025242,0.002245,0.002902,-0.030935,0.023928,0.023599,0.027870
10,0.083333,172,0.001917,-0.005310,0.015715,0.029184,0.011444,-0.001368,-0.029949,0.024585,0.025899,0.030169
10,0.083333,173,-0.000711,-0.006953,0.014729,0.032797,-0.000711,-0.002354,-0.031592,0.024585,0.022942,0.033783
10,0.083333,174,-0.002682,-0.007939,0.018014,0.027870,0.003560,-0.006296,-0.029621,0.017357,0.036411,0.046924
10,0.083333,175,-0.004325,-0.006624,0.024913,0.028527,0.002574,-0.004325,-0.030278,0.026227,0.047252,0.031812
11,0.091667,176,-0.001697,-0.003668,0.017686,0.035097,0.004545,-0.003996,-0.029292,0.021956,0.029841,0.045610
11,0.091667,177,-0.000383,-0.007939,0.020314,0.022942,0.001588,0.002902,-0.031263,0.021956,0.028527,0.059079
11,0.091667,178,-0.001697,-0.008267,0.017357,0.026556,0.001260,-0.003668,-0.034220,0.022613,0.038054,0.051194
11,0.091667,179,-0.003668,-0.003996,0.015058,0.024913,0.002902,-0.003996,-0.030606,0.023270,0.039368,0.047252
11,0.091667,180,-0.002682,-0.014837,0.026227,0.023270,0.002902,-0.001040,-0.032249,0.021956,0.027213,0.041010
11,0.091667,181,-0.001368,-0.012209,0.016700,0.017357,0.012101,0.002245,-0.032906,0.021299,0.036411,0.026884
11,0.091667,182,0.001588,-0.013852,0.020642,0.012101,0.001917,0.004217,-0.030606,0.018671,0.023928,0.041996
11,0.091667,183,0.008816,-0.011552,0.021628,0.009473,0.005202,0.005202,-0.026664,0.010787,0.018343,0.032469
11,0.091667,184,-0.001697,-0.000383,0.019328,0.007502,0.007502,0.005202,-0.027650,0.026556,0.003231,0.039368
11,0.091667,185,0.004545,-0.008267,0.019000,0.004874,0.007173,0.005202,-0.029949,0.022613,0.021299,0.026556
11,0.091667,186,0.000931,-0.005967,0.019657,0.008487,-0.003996,0.005859,-0.030935,0.022285,0.019657,0.017357
11,0.091667,187,0.002574,-0.011552,0.019328,0.008487,0.008487,0.005202,-0.029292,0.022942,0.023599,0.018343
11,0.091667,188,0.010130,-0.017137,0.019328,0.010130,0.010787,0.010787,-0.025350,0.023270,-0.007282,0.001588
11,0.091667,189,0.003231,-0.019765,0.019328,0.008816,0.012101,0.010130,-0.029292,0.024585,-0.019108,0.009473
11,0.091667,190,0.003560,-0.021408,0.015386,0.013744,0.010458,0.008487,-0.029621,0.020971,0.003888,0.014729
11,0.091667,191,0.003888,-0.015823,0.019328,0.017357,-0.000054,0.005202,-0.032577,0.019985,0.000274,-0.006624
12,0.100000,192,0.004545,-0.015166,0.017357,0.015058,0.010458,0.004545,-0.034220,0.020971,-0.001697,-0.000711
12,0.100000,193,0.011772,-0.014837,0.016700,0.018343,0.005202,0.001260,-0.025678,0.023599,-0.017794,-0.018123
12,0.100000,194,0.008816,-0.012538,0.010130,0.018343,0.006845,-0.000711,-0.028635,0.021628,-0.016480,-0.014837
12,0.100000,195,0.008816,-0.003996,0.022942,0.017686,0.007502,-0.003011,-0.029621,0.022942,-0.003339,-0.019765
12,0.100000,196,0.005859,-0.002025,0.016372,0.019657,0.005531,-0.000383,-0.031263,0.022613,0.000603,-0.000383
12,0.100000,197,0.003231,-0.002025,0.019328,0.023270,0.002574,-0.006296,-0.027650,0.020642,-0.000383,0.001260
12,0.100000,198,0.005202,-0.013852,0.020971,0.023928,0.007830,-0.005310,-0.029621,0.019985,0.013744,0.003888
12,0.100000,199,0.004217,-0.000383,0.008487,0.023599,0.011115,-0.004982,-0.028635,0.025242,0.020971,0.013415
12,0.100000,200,0.001260,-0.004325,0.019328,0.027541,0.013415,-0.004982,-0.030606,0.025242,0.015058,0.015386
12,0.100000,201,0.000274,0.000931,0.013415,0.024256,0.014401,-0.002354,-0.032249,0.023270,0.019328,0.023599
12,0.100000,202,0.000603,0.000931,0.015715,0.025570,0.013086,-0.009910,-0.030278,0.022942,0.020971,0.018343
12,0.100000,203,0.007173,-0.012209,0.017357,0.022942,0.014072,-0.008267,-0.028635,0.014401,0.020971,0.021628
12,0.100000,204,-0.002025,-0.004653,0.019328,0.025899,0.014072,-0.009253,-0.030278,0.021956,0.029512,0.022285
12,0.100000,205,-0.002025,-0.014509,0.013415,0.024256,0.013086,-0.010238,-0.029292,0.021299,0.036083,0.050537
12,0.100000,206,-0.006296,-0.022393,0.014729,0.023599,0.008159,-0.013523,-0.030606,0.019328,0.023270,0.042981
12,0.100000,207,-0.003339,-0.024693,0.016043,0.022942,0.009801,-0.010238,-0.030935,0.018671,0.023928,0.044624
13,0.108333,208,-0.004982,-0.019108,0.019985,0.024913,0.010130,-0.013852,-0.026335,0.024256,0.035754,0.044624
13,0.108333,209,-0.001368,-0.015166,0.015715,0.027213,0.009473,-0.011881,-0.027321,0.026884,0.049223,0.031155
13,0.108333,210,0.005202,-0.003011,0.021956,0.025899,0.010130,-0.009910,-0.026007,0.026884,0.038382,0.064006
13,0.108333,211,0.008487,0.002245,0.023270,0.027213,0.011772,-0.013195,-0.026335,0.027870,0.035754,0.051523
13,0.108333,212,0.013086,0.005859,0.025899,0.026227,0.006188,-0.007282,-0.026664,0.026884,0.023270,0.046267
13,0.108333,213,0.003888,-0.003011,0.026884,0.025570,0.005859,-0.010238,-0.026993,0.023599,0.012758,0.039039
13,0.108333,214,-0.005310,-0.008924,0.024913,0.027870,0.002574,-0.012209,-0.027321,0.024256,0.033126,0.033126
13,0.108333,215,-0.009910,-0.014837,0.025242,0.027870,-0.003339,-0.014837,-0.026993,0.021299,0.023599,0.032469
13,0.108333,216,-0.010895,-0.015823,0.023599,0.027870,0.003231,-0.012866,-0.028964,0.023270,0.016700,0.036083
13,0.108333,217,-0.014837,-0.013852,0.020642,0.024913,0.000274,-0.011881,-0.030278,0.030498,0.016700,0.030169
13,0.108333,218,-0.008924,-0.018780,0.022942,0.023928,0.003560,-0.013195,-0.030606,0.019985,0.009144,0.018014
13,0.108333,219,-0.010567,-0.009910,0.024585,0.018671,0.007173,-0.012538,-0.028307,0.022285,0.004545,0.012758
13,0.108333,220,-0.008924,-0.015494,0.022613,0.023928,0.012101,-0.011881,-0.028635,0.024913,0.014729,0.010787
13,0.108333,221,-0.003011,-0.015166,0.020642,0.023928,0.014401,-0.007610,-0.025350,0.019328,-0.000054,-0.000054
13,0.108333,222,-0.009910,-0.018780,0.019328,0.025242,0.012101,-0.006296,-0.030935,0.028855,-0.000054,0.004874
13,0.108333,223,-0.003996,-0.013195,0.015386,0.026227,0.008816,-0.003011,-0.028635,0.020314,0.013744,-0.018451
14,0.116667,224,-0.002354,-0.007282,0.019000,0.033454,0.004217,-0.000054,-0.030935,0.020971,-0.005967,-0.018123
14,0.116667,225,0.001917,-0.005967,0.019657,0.024256,-0.000054,0.005531,-0.031592,0.019657,0.007502,-0.018451
14,0.116667,226,-0.000711,-0.005967,0.020971,0.026227,0.003231,0.001917,-0.024364,0.018343,0.012429,-0.013195
14,0.116667,227,0.000603,-0.010895,0.020642,0.025242,0.007830,0.004874,-0.032577,0.015386,0.000931,-0.003996
14,0.116667,228,0.003231,-0.006624,0.027870,0.025570,0.006845,0.003560,-0.030935,0.020642,-0.000383,0.026884
14,0.116667,229,0.004217,-0.007610,0.019985,0.024256,0.015386,0.003231,-0.029292,0.020314,0.012101,-0.001368
14,0.116667,230,-0.000054,-0.005967,0.018671,0.026227,0.008159,0.008816,-0.031263,0.022285,0.012758,0.013744
14,0.116667,231,-0.005310,-0.003996,0.019000,0.025899,0.010787,0.002902,-0.032249,0.027541,0.017357,0.021628
14,0.116667,232,-0.001040,-0.007610,0.020314,0.025899,0.011444,0.004874,-0.033234,0.020314,0.044296,0.019657
14,0.116667,233,-0.002354,-0.002354,0.019657,0.030498,0.012101,0.005859,-0.030606,0.022285,0.014401,0.034440
14,0.116667,234,0.000274,-0.002354,0.018014,0.021628,0.020642,0.006188,-0.028307,0.021628,0.018671,0.032797
14,0.116667,235,-0.001368,-0.000054,0.017686,0.025570,0.010458,0.004217,-0.028964,0.022285,0.021956,0.038711
14,0.116667,236,0.003888,-0.003668,0.019985,0.026884,0.007502,0.003888,-0.025021,0.010130,0.015715,0.041010
14,0.116667,237,-0.003339,-0.005639,0.018671,0.028527,0.006188,0.004874,-0.027321,0.028527,0.025570,0.044624
14,0.116667,238,-0.002354,-0.004653,0.017029,0.032469,0.005859,0.005531,-0.029292,0.027541,0.025899,0.042653
14,0.116667,239,0.000274,-0.006624,0.014401,0.029512,0.010458,0.004545,-0.027650,0.029512,0.031812,0.064006
15,0.125000,240,0.000931,-0.004325,0.016372,0.032140,0.008159,0.002902,-0.027650,0.029184,0.035426,0.054480
15,0.125000,241,0.010458,-0.005310,0.021299,0.031483,0.008816,0.006516,-0.022393,0.020971,0.014072,0.044953
15,0.125000,242,0.000274,-0.007282,0.026227,0.030826,0.006188,0.007830,-0.029621,0.028855,0.040682,0.033454
15,0.125000,243,0.002574,-0.006953,0.016043,0.033783,0.005859,0.007830,-0.027650,0.025899,0.022942,0.075833
15,0.125000,244,0.000603,-0.002354,0.015386,0.033126,0.012101,-0.002682,-0.026335,0.025899,0.019000,0.046267
15,0.125000,245,0.002574,0.002245,0.015058,0.030498,0.010458,0.004874,-0.026664,0.027213,0.026227,0.036083
15,0.125000,246,0.005202,0.003231,0.017686,0.029841,0.007502,0.003231,-0.027650,0.025570,0.017357,0.036411
15,0.125000,247,0.003888,0.004217,0.021299,0.030169,0.007830,0.001588,-0.031592,0.020971,0.045281,0.016372
15,0.125000,248,0.007502,0.011772,0.017357,0.031483,-0.006296,0.000274,-0.032249,0.020971,0.019000,0.037725
15,0.125000,249,0.009144,0.015058,0.015715,0.028527,0.007502,-0.010238,-0.027978,0.020971,0.018343,0.025899
15,0.125000,250,0.019000,0.015386,0.015715,0.024256,0.002574,0.001917,-0.024036,0.015715,0.001588,0.017357
15,0.125000,251,0.006516,0.006188,0.018014,0.025242,0.002245,-0.000054,-0.029292,0.023599,0.000274,0.019328
15,0.125000,252,0.003231,0.014072,0.020971,0.025242,-0.000383,0.001917,-0.028635,0.026556,0.012429,0.002574
15,0.125000,253,0.003888,0.010458,0.019000,0.029841,-0.009581,0.004545,-0.029292,0.024585,0.007502,0.011444
15,0.125000,254,0.003560,0.006516,0.015386,0.026227,0.000931,0.008159,-0.038162,0.025570,0.005531,0.008159
15,0.125000,255,0.004217,0.000603,0.015715,0.027213,-0.003339,0.002245,-0.028307,0.028198,0.002902,-0.004653
16,0.133333,256,-0.002025,-0.009253,0.017686,0.023270,-0.003668,0.005202,-0.032577,0.022285,0.008487,0.006188
16,0.133333,257,-0.001697,-0.014509,0.017029,0.027213,-0.004982,0.001917,-0.029949,0.025570,0.011444,-0.009253
16,0.133333,258,-0.001368,-0.018123,0.013086,0.020314,-0.003996,-0.003339,-0.031263,0.023599,0.008159,0.009144
16,0.133333,259,-0.000383,-0.023050,0.014401,0.019985,0.002902,-0.010238,-0.029949,0.023928,0.003231,0.002245
16,0.133333,260,0.000274,-0.021736,0.014401,0.018014,0.010787,-0.003339,-0.029292,0.026884,0.019657,0.012429
16,0.133333,261,0.000274,-0.012209,0.004874,0.015715,0.014729,-0.002025,-0.028964,0.026227,0.014401,0.013086
16,0.133333,262,-0.004982,-0.011881,0.017029,0.014072,0.015058,-0.000383,-0.028964,0.024256,0.027213,-0.004653
16,0.133333,263,-0.006624,-0.015166,0.020314,0.013415,0.010787,-0.006624,-0.027321,0.019657,0.018014,0.013415
16,0.133333,264,-0.005639,-0.020094,0.015715,0.012758,0.017357,-0.015494,-0.030935,0.018671,0.021956,0.016700
16,0.133333,265,-0.005639,-0.018123,0.013086,0.014072,0.012101,-0.009910,-0.029621,0.016700,0.004217,0.010787
16,0.133333,266,-0.010238,-0.022393,0.019657,0.014072,0.011772,-0.010567,-0.028635,0.019985,-0.007282,0.028527
16,0.133333,267,-0.007282,-0.020751,0.015715,0.013744,0.009801,-0.009253,-0.029292,0.021299,0.016372,0.030826
16,0.133333,268,-0.007610,-0.020422,0.018014,0.020314,0.002574,-0.003996,-0.030606,0.020642,0.021956,0.026884
16,0.133333,269,-0.000383,-0.022065,0.019000,0.017029,0.013415,0.001260,-0.036191,0.020314,0.019328,0.037068
16,0.133333,270,-0.003668,-0.016151,0.017686,0.020314,0.013744,0.002574,-0.031920,0.020642,0.014729,0.037068
16,0.133333,271,-0.008267,-0.017794,0.021628,0.021956,0.013415,0.001588,-0.030935,0.021956,0.021628,0.041010
17,0.141667,272,-0.009581,-0.020094,0.022942,0.020971,0.018343,0.000603,-0.028964,0.022285,0.023599,0.039368
17,0.141667,273,-0.009910,-0.020422,0.010787,0.020314,0.008816,-0.002354,-0.027650,0.026227,0.028198,0.043310
17,0.141667,274,-0.013852,-0.024036,0.020314,0.015715,0.004874,-0.006296,-0.020422,0.022613,0.030826,0.047909
17,0.141667,275,-0.008267,-0.028307,0.020642,0.013744,0.006845,-0.003668,-0.029292,0.020642,0.034769,0.041996
17,0.141667,276,-0.001368,-0.019108,0.016700,0.016700,0.007502,-0.002354,-0.026664,0.022285,0.017029,0.046267
17,0.141667,277,0.004545,-0.021079,0.024913,0.019000,0.007830,-0.002025,-0.025678,0.024585,0.020314,0.029184
17,0.141667,278,0.004874,-0.018451,0.024256,0.022285,0.006845,-0.002025,-0.029292,0.026556,0.015386,0.035754
17,0.141667,279,0.001917,-0.013523,0.021628,0.022285,0.003888,-0.002025,-0.030606,0.028198,0.018343,0.036411
17,0.141667,280,0.002902,-0.020422,0.019657,0.021299,0.005531,-0.004325,-0.031263,0.020314,0.000274,0.027870
17,0.141667,281,-0.002354,-0.009253,0.020642,0.015386,0.002574,-0.006624,-0.029949,0.023599,0.010130,0.015386
17,0.141667,282,-0.003011,-0.006953,0.018343,0.019657,0.009801,-0.006953,-0.031920,0.023270,0.008159,0.014072
17,0.141667,283,-0.000711,0.000274,0.019657,0.023270,0.003231,-0.005967,-0.028964,0.020971,0.002574,0.016372
17,0.141667,284,-0.003339,-0.000711,0.025242,0.021628,0.003888,-0.006296,-0.030935,0.026227,0.019985,0.023270
17,0.141667,285,-0.000383,0.000274,0.025570,0.022613,0.004545,-0.003339,-0.031263,0.023928,0.048895,0.010130
17,0.141667,286,-0.002682,-0.004325,0.024585,0.031483,0.006845,-0.000054,-0.029949,0.024585,-0.001368,-0.003668
17,0.141667,287,-0.001040,-0.001040,0.024256,0.018343,0.015715,0.001260,-0.028635,0.025242,0.004874,-0.002354
18,0.150000,288,0.002902,0.002902,0.024913,0.020971,0.009144,0.004217,-0.033563,0.024913,-0.004982,0.002574
18,0.150000,289,0.014072,0.003888,0.027541,0.019985,0.010787,-0.001040,-0.029292,0.020642,0.013086,-0.001040
18,0.150000,290,0.011115,0.003231,0.027213,0.023270,0.012758,-0.000383,-0.028964,0.019985,-0.004325,0.041996
18,0.150000,291,0.005859,-0.005967,0.020971,0.031812,0.008816,0.000274,-0.029292,0.019985,0.008487,0.016372
18,0.150000,292,0.000931,-0.005967,0.023928,0.029841,0.009144,-0.013852,-0.029621,0.021299,0.010787,0.009144
18,0.150000,293,-0.002354,-0.004653,0.022613,0.030826,0.001588,-0.003339,-0.035862,0.023928,0.009801,0.010787
18,0.150000,294,-0.003668,-0.001040,0.022285,0.031812,0.000931,-0.002682,-0.030935,0.024585,0.039039,0.009144
18,0.150000,295,-0.002354,-0.010895,0.031812,0.030169,0.002574,0.000603,-0.031263,0.025242,0.023599,-0.001040
18,0.150000,296,0.001588,-0.005639,0.021956,0.027870,0.001588,-0.000054,-0.028964,0.024913,0.013086,0.033783
18,0.150000,297,0.005202,0.000603,0.023928,0.029512,0.006516,0.000931,-0.028307,0.024256,0.023270,0.030498
18,0.150000,298,0.009144,0.002574,0.024585,0.030826,0.006516,-0.005639,-0.022722,0.024256,0.030498,0.026884
18,0.150000,299,0.006516,0.006516,0.022613,0.027870,0.010130,-0.006296,-0.027978,0.026556,0.024913,0.039039
18,0.150000,300,0.005202,-0.006953,0.019985,0.030498,0.008487,-0.004982,-0.029949,0.019328,0.038711,0.066963
18,0.150000,301,-0.004982,-0.009253,0.020314,0.031812,-0.001368,-0.002025,-0.032249,0.021299,0.030826,0.045610
18,0.150000,302,-0.007939,-0.009581,0.022285,0.028855,0.013086,-0.001368,-0.043090,0.021956,0.043310,0.053822
18,0.150000,303,-0.001040,-0.005967,0.022285,0.028198,0.009144,-0.002682,-0.029292,0.021956,0.019985,0.039696
19,0.158333,304,-0.005310,-0.001368,0.019000,0.026556,0.005202,-0.002025,-0.030606,0.019328,0.025242,0.045938
19,0.158333,305,-0.003996,-0.000054,0.022942,0.015386,0.008159,0.000603,-0.029621,0.020314,0.033126,0.075505
19,0.158333,306,-0.002025,-0.001368,0.018671,0.026884,0.011444,0.003231,-0.027978,0.021299,0.028855,0.048238
19,0.158333,307,-0.003668,-0.003339,0.016700,0.027870,0.009144,0.008816,-0.041776,0.024585,0.030498,0.044624
19,0.158333,308,-0.005967,-0.002025,0.016700,0.028527,0.007830,0.008487,-0.028964,0.027541,0.030169,0.044296
19,0.158333,309,-0.002025,0.003888,0.022613,0.028198,0.011115,0.008816,-0.027321,0.023599,0.004217,0.040682
19,0.158333,310,-0.001697,0.006188,0.017686,0.026227,0.014729,0.006845,-0.030935,0.024256,0.030498,0.032140
19,0.158333,311,-0.002025,0.006188,0.016700,0.028198,0.013086,0.007830,-0.033234,0.020642,0.024585,0.035097
19,0.158333,312,-0.002025,-0.001697,0.018343,0.030826,0.010130,-0.003339,-0.029949,0.019985,0.021956,0.024913
19,0.158333,313,0.003231,-0.014837,0.019000,0.034112,0.011115,0.006188,-0.028964,0.017029,0.006188,0.019985
19,0.158333,314,0.001917,-0.000054,0.020642,0.034440,0.010787,0.007173,-0.026993,0.023270,-0.018451,0.018014
19,0.158333,315,0.001588,0.000931,0.018014,0.027870,0.008487,0.007502,-0.027650,0.022942,0.014072,0.018671
19,0.158333,316,0.002902,0.002245,0.016700,0.032469,0.002245,0.007502,-0.029949,0.024256,0.007173,0.012429
19,0.158333,317,0.008159,-0.001040,0.018671,0.033126,0.008487,0.003888,-0.030935,0.025242,0.011115,0.004874
19,0.158333,318,0.004217,-0.010567,0.019000,0.034440,0.005202,-0.000711,-0.026335,0.020314,-0.004982,0.001260
19,0.158333,319,-0.005967,-0.016808,0.013086,0.036411,0.003231,0.003231,-0.028307,0.026884,0.003560,-0.025021
20,0.166667,320,-0.005967,-0.021408,0.015715,0.028855,0.005859,0.002574,-0.027321,0.024913,0.007173,0.002574
20,0.166667,321,-0.005967,-0.019765,0.015058,0.032140,0.006188,0.000931,-0.028964,0.025899,-0.005310,-0.007610
20,0.166667,322,-0.014837,-0.016151,0.013744,0.030498,0.005202,0.004217,-0.035534,0.023928,0.000931,-0.002354
20,0.166667,323,-0.004982,-0.017137,0.017686,0.028855,0.006188,-0.001368,-0.028964,0.022942,0.005859,0.001588
20,0.166667,324,-0.003996,-0.023050,0.016372,0.021299,0.006845,-0.005639,-0.030606,0.026556,0.021628,0.009801
20,0.166667,325,-0.004325,-0.031263,0.025899,0.014401,0.004217,-0.006296,-0.029292,0.026227,0.015386,0.017686
20,0.166667,326,-0.003996,-0.026664,0.016700,0.012758,0.004217,-0.007282,-0.029621,0.026556,0.020971,0.014729
20,0.166667,327,-0.006624,-0.021408,0.013744,0.012101,0.004874,-0.009581,-0.029949,0.028855,0.013415,0.015386
20,0.166667,328,-0.000711,-0.021408,0.013086,0.013415,0.008159,-0.004982,-0.031592,0.020642,0.046595,0.017029
20,0.166667,329,0.000274,-0.013523,0.011444,0.010787,0.011444,-0.002354,-0.029292,0.021956,0.015715,0.016700
20,0.166667,330,-0.001697,-0.010238,0.016700,0.011115,0.011115,-0.003668,-0.027650,0.020642,0.019000,0.018014
20,0.166667,331,0.004217,-0.010238,0.016700,0.009144,0.008816,-0.003339,-0.030278,0.023270,0.019657,0.034112
20,0.166667,332,-0.001368,-0.007610,0.016700,0.009473,0.007173,-0.005639,-0.033563,0.029841,0.030169,0.045281
20,0.166667,333,0.005531,-0.006296,0.017029,0.012101,0.009473,-0.004325,-0.030606,0.019328,0.040682,0.037397
20,0.166667,334,0.003231,-0.006953,0.017686,0.006188,0.012429,-0.004653,-0.030606,0.021628,0.037725,0.055137
20,0.166667,335,-0.000711,-0.015166,0.016043,0.010458,0.012758,-0.006624,-0.029292,0.019657,0.036083,0.046595
21,0.175000,336,-0.001368,-0.022065,0.015386,0.010458,0.011115,-0.005967,-0.027650,0.015058,0.026556,0.054151
21,0.175000,337,-0.014509,-0.023707,0.014729,0.012101,0.011115,-0.006953,-0.034220,0.026227,0.038382,0.065978
21,0.175000,338,-0.007282,-0.025350,0.024585,0.012429,0.009144,-0.004325,-0.029621,0.023928,0.032469,0.057436
21,0.175000,339,-0.003996,-0.021408,0.018343,0.011115,0.008159,-0.001368,-0.029292,0.023928,0.028527,0.051523
21,0.175000,340,-0.003011,-0.020422,0.018671,0.002902,0.006845,0.001260,-0.029292,0.027213,0.029512,0.062035
21,0.175000,341,0.001588,-0.018123,0.019000,-0.000383,0.006516,-0.006953,-0.019765,0.026227,0.029512,0.051851
21,0.175000,342,0.006188,-0.015823,0.019328,0.003560,0.009144,-0.005967,-0.026335,0.023928,0.046267,0.047581
21,0.175000,343,0.010787,-0.007610,0.023599,0.004217,0.012758,-0.009253,-0.025678,0.025570,0.003231,0.066635
21,0.175000,344,0.014401,-0.003011,0.022942,0.006516,0.017029,-0.006953,-0.026007,0.022942,0.018343,0.032469
21,0.175000,345,0.015058,-0.000383,0.021628,0.009801,0.008487,0.002245,-0.027978,0.023928,0.001588,0.032469
21,0.175000,346,0.009801,0.002902,0.020642,0.012758,0.011115,-0.004653,-0.028635,0.019000,0.013744,0.032140
21,0.175000,347,0.012101,0.012429,0.018671,0.017686,0.007830,-0.001697,-0.030278,0.023270,0.043310,0.019328
21,0.175000,348,0.011772,0.011772,0.018343,0.010458,0.009144,-0.004325,-0.026335,0.020971,0.010787,0.030498
21,0.175000,349,0.006845,0.011444,0.018014,0.020314,0.006188,-0.002025,-0.028635,0.023928,0.009144,0.019985
21,0.175000,350,0.003560,0.005202,0.016043,0.028527,0.010130,-0.010567,-0.029292,0.023599,0.006188,0.009473
21,0.175000,351,0.011772,-0.001697,0.017357,0.026884,0.006516,0.002245,-0.026664,0.019000,-0.016480,-0.000383
22,0.183333,352,0.000274,-0.004653,0.007830,0.027541,0.005202,-0.001697,-0.032249,0.023270,-0.017466,-0.007610
22,0.183333,353,-0.003668,-0.015166,0.016043,0.031812,0.004874,-0.003339,-0.030278,0.020314,-0.006624,-0.003668
22,0.183333,354,-0.005639,-0.016480,0.018671,0.026884,0.000274,-0.001040,-0.034220,0.019985,-0.003339,-0.011881
22,0.183333,355,-0.006953,-0.012866,0.017357,0.028855,0.003888,0.003231,-0.042433,0.019985,-0.000054,-0.007282
22,0.183333,356,-0.003339,-0.010238,0.019000,0.027541,0.000931,-0.002354,-0.033891,0.018343,-0.012209,-0.015166
22,0.183333,357,0.001588,-0.012538,0.026884,0.026227,0.002245,-0.004653,-0.034220,0.023270,0.006845,-0.031263
22,0.183333,358,0.003560,-0.010895,0.018671,0.022942,0.008487,-0.009910,-0.032906,0.021299,0.003560,0.017686
22,0.183333,359,0.000603,-0.010567,0.017029,0.027541,0.015058,-0.016480,-0.030278,0.021956,0.011115,0.005531
22,0.183333,360,0.000603,-0.008267,0.019985,0.023599,0.012429,-0.005639,-0.028307,0.022942,0.007502,0.015715
22,0.183333,361,0.003231,-0.015166,0.019985,0.022613,0.009144,-0.007610,-0.028635,0.017029,0.014072,0.021299
22,0.183333,362,0.000931,-0.005639,0.008816,0.021299,0.005202,-0.006296,-0.028635,0.022613,0.043310,0.022285
22,0.183333,363,0.003231,-0.010238,0.021956,0.023270,-0.004982,-0.006953,-0.027978,0.022942,0.027870,0.033126
22,0.183333,364,0.001260,-0.011881,0.019328,0.020971,0.009801,-0.004982,-0.027321,0.022942,0.026227,0.042981
22,0.183333,365,0.002574,-0.013195,0.020642,0.021956,0.004545,-0.007282,-0.027978,0.029184,0.019985,0.037068
22,0.183333,366,0.005202,-0.014509,0.021299,0.019985,0.004545,-0.003339,-0.028307,0.019985,0.010130,0.032140
22,0.183333,367,-0.001368,-0.012866,0.018671,0.024913,0.003888,-0.005967,-0.027650,0.026227,0.026556,0.027213
23,0.191667,368,-0.001368,-0.018780,0.026884,0.027870,0.006845,-0.008267,-0.026993,0.027213,0.026556,0.043310
23,0.191667,369,-0.003996,-0.023707,0.021956,0.023928,0.007173,-0.009910,-0.028307,0.028527,0.028855,0.049880
23,0.191667,370,-0.016808,-0.022393,0.019985,0.022285,0.006845,0.001588,-0.032577,0.027541,0.020314,0.053165
23,0.191667,371,-0.008267,-0.027321,0.022613,0.020642,0.008816,0.006845,-0.026993,0.026884,0.023599,0.046924
23,0.191667,372,-0.010238,-0.018451,0.024913,0.025242,0.007173,0.010458,-0.025678,0.030826,0.030826,0.030498
23,0.191667,373,-0.012209,-0.015494,0.019328,0.023928,0.009473,0.010458,-0.026993,0.027541,0.033126,0.036411
23,0.191667,374,-0.012538,-0.013195,0.019657,0.025570,0.005202,0.005531,-0.029949,0.026556,0.026227,0.040353
23,0.191667,375,-0.010895,-0.011881,0.019985,0.024585,0.003888,0.000603,-0.028635,0.022613,0.021956,0.035097
23,0.191667,376,-0.006953,-0.015494,0.020642,0.024585,0.006188,0.004545,-0.028964,0.022942,0.016372,0.032140
23,0.191667,377,-0.003011,-0.024693,0.020642,0.027870,0.012429,-0.000383,-0.029949,0.022942,0.016372,0.024913
23,0.191667,378,-0.006953,-0.013852,0.018014,0.031155,0.005202,-0.001697,-0.030606,0.024256,0.023270,0.026227
23,0.191667,379,-0.016151,-0.011224,0.017357,0.031483,0.010130,0.000274,-0.030278,0.024585,0.016043,0.024585
23,0.191667,380,-0.011552,-0.008596,0.019657,0.032140,0.009473,-0.002025,-0.030606,0.031812,0.025570,0.026884
23,0.191667,381,-0.003668,-0.005639,0.020314,0.031155,0.009144,-0.001368,-0.028307,0.023599,0.008487,0.018014
23,0.191667,382,-0.002354,-0.005967,0.019657,0.025899,0.010787,-0.002682,-0.026664,0.022942,0.022942,0.026884
23,0.191667,383,-0.001697,-0.004982,0.020971,0.032469,0.005202,0.001588,-0.026007,0.023928,0.009144,0.006516
24,0.200000,384,-0.000054,-0.006296,0.020971,0.029512,0.008816,0.000274,-0.021079,0.023270,0.004874,0.006516
24,0.200000,385,-0.003996,-0.003011,0.017686,0.033126,0.008487,-0.000054,-0.027650,0.031483,0.001917,0.011444
24,0.200000,386,-0.000711,-0.002025,0.013086,0.031812,0.008487,-0.002025,-0.023707,0.024585,0.014401,-0.015823
24,0.200000,387,-0.001368,-0.002682,0.021956,0.022942,0.010130,-0.004325,-0.025021,0.025899,0.014401,0.004874
24,0.200000,388,-0.000711,-0.002354,0.019328,0.032469,0.009801,-0.006624,-0.025350,0.026884,0.017029,0.010458
24,0.200000,389,0.002245,-0.002682,0.018671,0.032469,0.007173,-0.005310,-0.020422,0.024256,0.015386,0.012758
24,0.200000,390,0.003231,0.006845,0.019000,0.032140,0.010130,-0.001040,-0.027978,0.024913,0.031483,0.012758
24,0.200000,391,0.005202,0.003888,0.015715,0.033126,0.012758,-0.003011,-0.028307,0.019985,0.006845,0.036740
24,0.200000,392,0.004545,0.004217,0.019657,0.030498,0.018014,-0.001697,-0.029949,0.021956,0.017686,0.005531
24,0.200000,393,0.001588,0.003231,0.020971,0.031483,0.003560,0.006516,-0.031263,0.020642,0.016372,0.022285
24,0.200000,394,-0.002682,0.001917,0.021628,0.032469,0.005202,-0.002354,-0.031592,0.025570,0.040025,0.036083
24,0.200000,395,0.003888,-0.002682,0.019000,0.034112,0.002574,-0.000383,-0.032906,0.018014,0.055465,0.032140
24,0.200000,396,0.003560,0.001260,0.016043,0.040682,0.001917,-0.001040,-0.031592,0.021299,0.023928,0.029184
24,0.200000,397,0.002902,0.003888,0.015715,0.030498,0.001588,0.001260,-0.030278,0.024585,0.031483,0.043967
24,0.200000,398,0.002245,0.002574,0.016700,0.030826,-0.004325,0.003231,-0.038162,0.025242,0.026556,0.041339
24,0.200000,399,0.003231,-0.000711,0.019328,0.030169,-0.001697,-0.001368,-0.026993,0.016700,0.031483,0.052180
25,0.208333,400,0.002902,-0.003668,0.026227,0.026884,-0.000711,0.001588,-0.027321,0.027541,0.033783,0.050866
25,0.208333,401,0.002574,-0.002682,0.020314,0.026227,-0.000383,0.003231,-0.027978,0.022942,0.030169,0.049552
25,0.208333,402,0.005531,-0.003668,0.021299,0.026556,0.003231,0.003888,-0.030278,0.020314,0.028198,0.059736
25,0.208333,403,0.002245,-0.000711,0.020971,0.027870,0.002902,0.001588,-0.025678,0.019657,0.031483,0.045610
25,0.208333,404,0.002574,-0.003339,0.020642,0.027213,0.008487,0.000931,-0.031592,0.009144,0.031155,0.047909
25,0.208333,405,-0.001697,-0.005639,0.019657,0.027870,0.005859,-0.001040,-0.033563,0.016700,0.059407,0.035754
25,0.208333,406,0.000274,-0.006624,0.020314,0.024913,0.006845,-0.003996,-0.031920,0.019985,0.030498,0.041996
25,0.208333,407,-0.000711,-0.003339,0.017357,0.025899,0.004874,0.001588,-0.032906,0.020642,0.030498,0.056122
25,0.208333,408,0.001917,-0.000383,0.015715,0.024256,0.007173,0.001917,-0.044075,0.020642,0.025242,0.045610
25,0.208333,409,-0.000054,0.008159,0.016700,0.022613,0.011115,-0.002682,-0.030935,0.025899,0.007830,0.044624
25,0.208333,410,-0.000054,-0.003011,0.020314,0.023599,0.010787,-0.000054,-0.034548,0.021628,0.044953,0.015715
25,0.208333,411,0.000274,-0.008596,0.016372,0.026556,0.003560,0.000603,-0.033891,0.023599,0.025242,0.033454
25,0.208333,412,0.001917,-0.017466,0.017357,0.024256,0.014729,-0.010895,-0.029292,0.021299,0.011772,0.028198
25,0.208333,413,-0.006296,-0.017137,0.017686,0.023599,0.010458,0.000603,-0.031920,0.031155,0.024256,0.036411
25,0.208333,414,-0.001697,-0.007610,0.018343,0.021628,0.013415,-0.001040,-0.028964,0.026884,0.004874,0.030169
25,0.208333,415,0.000603,-0.004982,0.023599,0.017686,0.014072,-0.001368,-0.031592,0.023928,0.017357,0.015386
26,0.216667,416,0.004217,-0.005310,0.020642,0.023599,0.020642,-0.002682,-0.030606,0.022942,0.015386,0.027541
26,0.216667,417,0.002902,-0.003339,0.014729,0.020971,0.017686,-0.006296,-0.032249,0.025570,0.008816,0.016372
26,0.216667,418,0.012101,-0.005310,0.012429,0.019657,0.010458,-0.001368,-0.028635,0.025242,-0.014509,-0.008267
26,0.216667,419,0.001260,-0.004325,0.006516,0.022613,0.009144,-0.001368,-0.032577,0.020642,0.018343,-0.013523
26,0.216667,420,-0.000054,-0.007939,0.017357,0.026227,0.009801,0.003560,-0.031592,0.023599,0.014401,-0.024364
26,0.216667,421,-0.002682,-0.009910,0.015058,0.025899,0.006188,0.002574,-0.034548,0.022285,0.012758,0.021956
26,0.216667,422,-0.004325,-0.012209,0.015058,0.023599,0.011115,0.002245,-0.031263,0.022613,0.010458,0.018671
26,0.216667,423,-0.007610,-0.005639,0.012429,0.022613,0.011772,-0.006953,-0.034220,0.023599,0.006845,0.018671
26,0.216667,424,0.001588,-0.003668,0.008816,0.021956,0.010130,-0.007282,-0.031263,0.025899,0.022613,0.016372
26,0.216667,425,0.000603,-0.008267,0.015715,0.020314,0.015386,-0.008596,-0.030606,0.022285,0.026884,0.020971
26,0.216667,426,-0.001040,-0.002682,0.017357,0.016043,0.014729,-0.002354,-0.031592,0.023270,0.022285,0.029512
26,0.216667,427,0.002902,0.004217,0.019985,0.016043,0.011115,-0.004982,-0.030606,0.023928,0.027870,0.035754
26,0.216667,428,0.006188,0.011772,0.024585,0.005202,0.013086,-0.005310,-0.031920,0.023599,0.021299,0.038711
26,0.216667,429,0.006188,0.017029,0.020971,0.016372,0.013415,-0.002354,-0.030278,0.022613,0.009144,0.030498
26,0.216667,430,0.004545,0.011772,0.020642,0.012429,0.013086,-0.003668,-0.031920,0.019328,0.039039,0.038054
26,0.216667,431,0.001917,0.002902,0.020642,0.021628,0.002245,-0.003011,-0.033891,0.018671,0.038711,0.051851
27,0.225000,432,-0.011224,-0.003339,0.020314,0.019328,0.005859,-0.000054,-0.039805,0.020314,0.050866,0.060721
27,0.225000,433,-0.001697,-0.006296,0.019657,0.021299,0.003560,0.003231,-0.032577,0.022285,0.038054,0.053494
27,0.225000,434,-0.005310,-0.018123,0.024585,0.024256,0.002574,0.005202,-0.031920,0.025242,0.046595,0.039696
27,0.225000,435,-0.005967,-0.022393,0.024256,0.015386,0.004545,0.005531,-0.030278,0.023270,0.041667,0.063678
27,0.225000,436,-0.004325,-0.028307,0.024256,0.021299,0.006845,0.001588,-0.028964,0.023928,0.034769,0.044296
27,0.225000,437,-0.003011,-0.027978,0.026556,0.019328,0.005202,0.008487,-0.025678,0.023928,0.027213,0.045938
27,0.225000,438,-0.006296,-0.032577,0.025899,0.015715,0.004874,0.011772,-0.033563,0.022613,0.003888,0.044624
27,0.225000,439,-0.004982,-0.028307,0.019985,0.015715,0.001260,0.011444,-0.031920,0.024256,0.036411,0.024585
27,0.225000,440,-0.004653,-0.030935,0.026227,0.014401,-0.003011,0.010458,-0.030278,0.022942,0.022285,0.041339
27,0.225000,441,-0.004982,-0.031263,0.023599,0.012101,0.005202,0.010130,-0.031263,0.024585,0.026556,0.030498
27,0.225000,442,0.000603,-0.024364,0.024585,0.011772,0.004874,0.003560,-0.029621,0.021956,0.015386,0.018014
27,0.225000,443,0.003231,-0.028307,0.026556,0.010130,0.003560,-0.003011,-0.029949,0.021628,0.001588,0.017357
27,0.225000,444,0.002245,-0.013195,0.025242,0.009473,-0.001368,-0.005639,-0.031592,0.021956,0.017029,0.028855
27,0.225000,445,0.002574,-0.011224,0.025570,0.019985,-0.000054,-0.002682,-0.029621,0.019328,0.005531,0.010458
27,0.225000,446,0.000603,-0.013195,0.022285,0.021956,0.004217,-0.004982,-0.025350,0.021628,0.002574,0.013415
27,0.225000,447,-0.008267,-0.013195,0.020971,0.021956,0.007173,-0.003011,-0.029949,0.027870,0.011444,0.016043
28,0.233333,448,-0.003996,-0.013523,0.024913,0.021299,0.008487,-0.002682,-0.027321,0.025242,0.008159,0.006845
28,0.233333,449,-0.003339,-0.008924,0.018671,0.022613,0.004545,0.002574,-0.029949,0.024913,-0.003339,0.003560
28,0.233333,450,-0.004325,-0.011881,0.018014,0.020642,-0.001040,0.000603,-0.027978,0.024256,-0.005639,0.012758
28,0.233333,451,-0.002025,-0.009910,0.019000,0.022285,-0.000054,-0.004325,-0.019765,0.023599,0.004217,0.009144
28,0.233333,452,-0.000711,-0.008596,0.019657,0.021628,0.003231,-0.002025,-0.026007,0.028527,0.013744,0.018671
28,0.233333,453,-0.002354,-0.008924,0.019328,0.021299,0.003888,-0.002025,-0.024364,0.026884,0.014072,0.020971
28,0.233333,454,-0.003339,-0.010238,0.019328,0.022285,0.003888,-0.002682,-0.025350,0.026227,-0.001368,0.025242
28,0.233333,455,-0.001040,-0.010567,0.019657,0.020971,0.000931,-0.000383,-0.026335,0.026884,-0.000383,0.029841
28,0.233333,456,-0.003339,-0.004325,0.017357,0.023928,-0.001040,-0.009581,-0.023707,0.025899,0.014072,0.028198
28,0.233333,457,-0.001368,-0.002682,0.016043,0.025242,0.001260,-0.008924,-0.031263,0.024256,0.041996,0.028855
28,0.233333,458,-0.001368,-0.005967,0.026556,0.023270,0.005202,-0.008596,-0.029292,0.024585,0.002574,0.045610
28,0.233333,459,-0.001040,-0.002682,0.017686,0.021628,0.016700,-0.003996,-0.029621,0.024585,0.022613,0.026556
28,0.233333,460,0.000603,-0.005967,0.019657,0.023928,0.009801,-0.009910,-0.028307,0.022942,0.015386,0.027870
28,0.233333,461,0.005859,-0.005967,0.018343,0.028855,0.009801,0.005531,-0.027321,0.016372,0.002245,0.032797
28,0.233333,462,-0.005639,0.000931,0.018343,0.028198,0.010458,0.002902,-0.026007,0.026227,0.005531,0.037397
28,0.233333,463,0.000274,-0.010567,0.015058,0.030826,0.010458,0.002245,-0.026335,0.020971,0.027541,0.058750
29,0.241667,464,-0.001040,-0.010238,0.019328,0.031155,-0.001368,0.005531,-0.028964,0.021956,0.023599,0.045938
29,0.241667,465,0.000274,-0.008924,0.018343,0.027213,0.006516,0.001917,-0.036519,0.024585,0.036740,0.041667
29,0.241667,466,0.009801,-0.006296,0.018343,0.026227,0.007502,-0.000711,-0.023379,0.014401,0.020971,0.042981
29,0.241667,467,0.001260,-0.004325,0.029184,0.025899,0.009473,-0.006296,-0.028307,0.024585,0.016043,0.045281
29,0.241667,468,0.003560,0.001260,0.022942,0.012429,0.013086,-0.013852,-0.028307,0.022285,0.015058,0.041667
29,0.241667,469,0.002245,-0.001697,0.021628,0.028527,0.009144,-0.012538,-0.027650,0.022942,0.023270,0.040025
29,0.241667,470,0.004545,-0.005639,0.022613,0.025899,0.018671,-0.010567,-0.022722,0.023270,0.030826,0.022613
29,0.241667,471,0.000931,-0.003996,0.019000,0.028198,0.015386,-0.011881,-0.031263,0.030498,0.038382,0.042324
29,0.241667,472,0.002245,-0.004653,0.008159,0.028855,0.013415,-0.008596,-0.029621,0.022942,0.040682,0.029841
29,0.241667,473,-0.000711,-0.008267,0.018343,0.030169,0.002245,-0.004982,-0.031592,0.021299,0.021628,0.024256
29,0.241667,474,-0.002682,-0.007610,0.018671,0.031812,0.012758,-0.010238,-0.030278,0.019985,0.012101,0.014401
29,0.241667,475,0.003231,-0.008267,0.019328,0.029841,0.005859,-0.006624,-0.029621,0.021299,0.010130,0.014072
29,0.241667,476,0.002245,-0.019437,0.024256,0.029512,0.001917,-0.008267,-0.027978,0.016372,0.002574,0.009144
29,0.241667,477,0.000603,-0.009581,0.020971,0.028527,0.003560,-0.009910,-0.028307,0.021628,0.019657,0.003231
29,0.241667,478,0.002574,-0.010238,0.019000,0.028527,0.010458,-0.010238,-0.026993,0.020971,0.001588,0.007173
29,0.241667,479,0.000603,-0.008596,0.019985,0.025899,0.007173,-0.010567,-0.027650,0.020314,-0.006624,-0.001368
30,0.250000,480,-0.000383,-0.008596,0.018014,0.025899,0.008816,-0.019437,-0.028307,0.019985,-0.000383,-0.005639
30,0.250000,481,0.000931,-0.018123,0.020314,0.022285,0.004217,-0.012866,-0.027650,0.015715,-0.003668,-0.012209
30,0.250000,482,-0.002354,-0.007939,0.021299,0.027213,0.003560,-0.010238,-0.029949,0.023270,0.007830,-0.026993
30,0.250000,483,-0.000711,-0.010567,0.016372,0.023928,0.008816,-0.010567,-0.029292,0.021628,0.003231,0.003888
30,0.250000,484,0.000274,-0.008596,0.018014,0.023928,0.007173,-0.012538,-0.029949,0.020971,0.005859,-0.004982
30,0.250000,485,-0.011552,-0.008267,0.017029,0.023928,0.007502,-0.004325,-0.037177,0.021956,0.018343,0.007830
30,0.250000,486,0.003560,-0.005310,0.010130,0.025242,0.006188,-0.003011,-0.031263,0.023270,0.013086,0.005202
30,0.250000,487,-0.001697,-0.011224,0.015715,0.026884,0.006845,-0.002354,-0.033234,0.021628,0.038711,-0.021408
30,0.250000,488,-0.001368,-0.007282,0.017357,0.019328,0.010458,-0.002025,-0.033234,0.019985,0.020314,0.018014
30,0.250000,489,0.001588,-0.007282,0.020314,0.022942,0.013086,-0.007939,-0.030606,0.019328,0.029512,0.013744
30,0.250000,490,-0.001040,-0.003339,0.018671,0.024256,0.013415,0.003560,-0.030606,0.019657,0.016372,0.029184
30,0.250000,491,-0.002682,-0.008924,0.021628,0.021299,0.014072,0.007830,-0.028635,0.020642,-0.002682,0.030498
30,0.250000,492,-0.002354,-0.009253,0.016372,0.017686,0.012101,0.008159,-0.027978,0.021956,0.037725,0.032797
30,0.250000,493,-0.003668,-0.008596,0.018671,0.025899,0.004874,0.005859,-0.026335,0.022285,0.025570,0.034769
30,0.250000,494,-0.000383,-0.007610,0.018343,0.022942,0.008816,0.002574,-0.019437,0.024913,0.035754,0.032140
30,0.250000,495,-0.004653,-0.004325,0.017686,0.022613,0.014072,0.006516,-0.028635,0.033783,0.034112,0.052180
31,0.258333,496,-0.002025,-0.005310,0.015058,0.022942,0.014729,0.008159,-0.025350,0.026556,0.034440,0.051194
31,0.258333,497,-0.003996,-0.009253,0.020314,0.016372,0.018343,0.003888,-0.027321,0.026884,0.042981,0.060721
31,0.258333,498,-0.002354,-0.008596,0.020971,0.022613,0.019657,0.004217,-0.027321,0.024585,0.030169,0.051194
31,0.258333,499,0.002902,-0.007939,0.023599,0.019657,0.017029,0.003231,-0.024036,0.023270,0.031483,0.048238
31,0.258333,500,-0.000383,-0.005310,0.021299,0.021299,0.012429,0.003888,-0.026664,0.033126,0.042981,0.060064
31,0.258333,501,0.004545,-0.004325,0.015058,0.024585,0.010787,0.002902,-0.026335,0.023928,0.024585,0.077147
31,0.258333,502,0.002574,-0.006296,0.018671,0.026884,0.007173,0.004874,-0.029292,0.026556,0.027541,0.033126
31,0.258333,503,-0.003996,-0.004982,0.020314,0.024585,0.003560,0.010130,-0.027321,0.026556,0.022942,0.047581
31,0.258333,504,-0.000383,-0.003668,0.019328,0.025899,0.004545,0.001260,-0.017794,0.024256,0.029841,0.036740
31,0.258333,505,0.000931,-0.002354,0.019328,0.024256,0.005531,0.003888,-0.026993,0.025570,0.015058,0.031483
31,0.258333,506,0.001588,-0.003011,0.018671,0.022285,0.008816,0.000274,-0.026335,0.023599,-0.001697,0.043638
31,0.258333,507,0.004217,-0.003996,0.018343,0.019000,0.015386,0.002902,-0.027650,0.027213,0.008159,0.027541
31,0.258333,508,0.001588,-0.002682,0.020642,0.023928,0.007502,0.010787,-0.029621,0.027213,0.000603,0.027541
31,0.258333,509,0.000931,-0.005639,0.022285,0.024256,0.013086,-0.001368,-0.027978,0.029841,0.017029,0.032469
31,0.258333,510,0.002902,-0.006953,0.019657,0.026556,0.011115,-0.000711,-0.029292,0.028527,0.033126,0.022613
31,0.258333,511,0.002902,-0.010238,0.017029,0.027213,0.009473,-0.001368,-0.025350,0.025570,0.002245,0.021956
32,0.266667,512,0.000931,-0.007610,0.017686,0.021628,0.015715,0.000931,-0.026993,0.027213,0.005859,0.009801
32,0.266667,513,0.000603,-0.007282,0.017686,0.025899,0.003560,-0.000383,-0.018451,0.028198,0.003560,0.003888
32,0.266667,514,0.006516,-0.009253,0.018343,0.025570,0.005859,0.004874,-0.021408,0.019657,-0.015494,0.006516
32,0.266667,515,-0.004325,-0.012538,0.019985,0.028527,0.006845,0.004217,-0.027978,0.025899,0.008487,-0.013523
32,0.266667,516,-0.000711,-0.014180,0.012429,0.036740,0.012429,0.000603,-0.024364,0.021628,0.007173,0.022942
32,0.266667,517,0.001917,-0.016151,0.016043,0.027870,0.015058,0.001260,-0.027650,0.021628,0.005859,0.007830
32,0.266667,518,-0.002025,-0.013523,0.015386,0.029184,0.015058,-0.003011,-0.028635,0.022613,0.016043,0.008816
32,0.266667,519,-0.003339,-0.005967,0.017686,0.026556,0.014729,-0.003011,-0.028964,0.026884,0.037397,0.020642
32,0.266667,520,-0.000383,-0.014180,0.019328,0.025899,0.010787,-0.000054,-0.031920,0.020971,0.044624,0.011115
32,0.266667,521,0.002902,-0.009581,0.022942,0.029512,-0.002025,0.000274,-0.029949,0.022942,0.021956,0.033454
32,0.266667,522,0.004545,-0.010567,0.018343,0.028527,0.010787,-0.006624,-0.029949,0.022285,0.023599,0.029512
32,0.266667,523,-0.005639,-0.011552,0.017029,0.025899,0.004217,0.003888,-0.030278,0.023928,0.021956,0.040353
32,0.266667,524,-0.000383,-0.006296,0.017029,0.023270,0.003231,0.002902,-0.026664,0.027213,0.013744,0.048566
32,0.266667,525,0.003560,-0.009253,0.017029,0.023270,0.001917,0.001917,-0.030606,0.021299,0.062692,0.036740
32,0.266667,526,0.003560,-0.007939,0.013744,0.022613,0.002245,0.002574,-0.029621,0.023270,0.038711,0.059736
32,0.266667,527,0.004874,-0.010238,0.015058,0.026556,0.007830,-0.008267,-0.029949,0.020314,0.044624,0.049880
33,0.275000,528,0.010458,-0.012866,0.016043,0.023928,0.000931,0.001260,-0.025021,0.020314,0.017029,0.044624
33,0.275000,529,-0.002025,-0.013523,0.018014,0.020971,0.002574,-0.002354,-0.029949,0.023599,0.009473,0.057436
33,0.275000,530,-0.003339,-0.012866,0.021299,0.010787,0.003560,0.000931,-0.027650,0.023928,0.027213,0.048566
33,0.275000,531,-0.004325,-0.011224,0.020642,0.020314,-0.000054,0.004545,-0.027978,0.025570,-0.000054,0.046595
33,0.275000,532,-0.004982,-0.009253,0.018014,0.022613,0.005202,0.005531,-0.029292,0.028527,0.022285,0.044953
33,0.275000,533,-0.009253,-0.013852,0.018671,0.023599,0.003560,-0.000383,-0.030278,0.029841,0.016700,0.024913
33,0.275000,534,-0.005639,-0.012209,0.005531,0.025570,0.000931,-0.003011,-0.028307,0.022285,0.032469,0.030826
33,0.275000,535,-0.007282,-0.010238,0.022613,0.021299,-0.000711,-0.007939,-0.032906,0.022942,0.009801,0.022942
33,0.275000,536,-0.010895,-0.013195,0.016372,0.023928,-0.002354,-0.002025,-0.032577,0.022285,0.017357,0.031483
33,0.275000,537,-0.011881,-0.013852,0.018343,0.023270,-0.005967,-0.008267,-0.029292,0.019000,0.011115,0.014729
33,0.275000,538,-0.014180,-0.025678,0.020314,0.022613,-0.004325,-0.002682,-0.029621,0.015715,0.010130,0.006188
33,0.275000,539,-0.013523,-0.009581,0.014072,0.021628,-0.005639,-0.002025,-0.030278,0.023928,0.003231,0.013086
33,0.275000,540,-0.012538,-0.013195,0.020314,0.016043,-0.003668,-0.005967,-0.029621,0.022285,0.008816,0.014401
33,0.275000,541,-0.008924,-0.011224,0.020642,0.021956,-0.011881,-0.008267,-0.032577,0.022613,0.012101,0.011115
33,0.275000,542,-0.017137,-0.008924,0.018014,0.020642,-0.006953,-0.009253,-0.037177,0.022613,0.021628,0.011444
33,0.275000,543,-0.000711,-0.010238,0.017357,0.022285,-0.008596,-0.010567,-0.030606,0.016372,-0.008596,-0.002354
34,0.283333,544,-0.006296,-0.008267,0.018343,0.026884,-0.009253,-0.011881,-0.032906,0.022285,0.010130,0.005531
34,0.283333,545,-0.004982,-0.008267,0.018014,0.017686,-0.002354,-0.013523,-0.028964,0.022285,0.011115,0.007830
34,0.283333,546,-0.002682,-0.009581,0.019985,0.019328,-0.002354,-0.011552,-0.029292,0.024913,0.008487,-0.003339
34,0.283333,547,0.003888,-0.007939,0.020642,0.019000,-0.003339,-0.006624,-0.037177,0.021299,0.005202,0.003888
34,0.283333,548,0.000931,-0.004325,0.019328,0.020642,-0.003668,-0.007282,-0.034220,0.023270,0.001260,0.005202
34,0.283333,549,0.004545,-0.001040,0.021299,0.015386,-0.001040,-0.008267,-0.033234,0.021299,0.017686,0.005531
34,0.283333,550,0.005859,-0.001040,0.021299,0.019328,0.004874,-0.007939,-0.033234,0.023270,0.017029,0.001917
34,0.283333,551,0.004217,-0.004325,0.021299,0.021956,0.012101,-0.011881,-0.031263,0.026556,0.018343,0.000274
34,0.283333,552,0.006516,-0.006296,0.021299,0.020642,0.013744,-0.004325,-0.025678,0.024585,0.013744,0.011444
34,0.283333,553,0.001588,-0.008596,0.020314,0.019328,0.011115,-0.004653,-0.029292,0.021628,-0.007282,0.016043
34,0.283333,554,0.001588,-0.001368,0.010787,0.021299,0.007830,-0.006953,-0.030606,0.019328,0.027541,0.032797
34,0.283333,555,0.002574,-0.003339,0.019000,0.021956,0.011115,-0.005967,-0.030278,0.020314,0.025899,0.021299
34,0.283333,556,0.002245,0.000274,0.015715,0.023599,0.016043,0.001588,-0.030606,0.022613,0.024913,0.029184
34,0.283333,557,0.006845,-0.002354,0.015058,0.022285,0.020971,0.002902,-0.029292,0.023599,0.025570,0.038054
34,0.283333,558,0.010787,-0.003996,0.016372,0.023599,0.020971,0.008487,-0.031592,0.021299,0.050537,0.035426
34,0.283333,559,0.010130,-0.002354,0.014729,0.030826,0.023270,0.009473,-0.029292,0.024585,0.027870,0.035097
35,0.291667,560,0.008816,-0.002354,0.019328,0.020642,0.030169,0.010458,-0.029292,0.024585,0.037725,0.045610
35,0.291667,561,0.004874,-0.003668,0.013744,0.022942,0.021299,0.007502,-0.022722,0.024913,0.038382,0.047909
35,0.291667,562,-0.004325,-0.003011,0.012429,0.021628,0.016700,0.005531,-0.032577,0.032140,0.042653,0.069591
35,0.291667,563,0.002902,-0.003996,0.012758,0.021628,0.017357,0.005202,-0.028635,0.022942,0.018014,0.092916
35,0.291667,564,0.001260,-0.007610,0.014401,0.028527,0.010130,0.006188,-0.026993,0.024256,0.032140,0.060393
35,0.291667,565,0.002574,-0.006953,0.018014,0.019000,0.007830,-0.002354,-0.028307,0.025899,0.018343,0.044953
35,0.291667,566,0.002245,-0.005310,0.017357,0.020642,0.000931,-0.001040,-0.020422,0.024585,0.020642,0.040025
35,0.291667,567,0.005202,-0.010238,0.017357,0.021299,0.002245,-0.002354,-0.031263,0.021628,0.021628,0.031483
35,0.291667,568,0.003560,-0.004982,0.027213,0.021628,0.005202,-0.002682,-0.029292,0.024256,0.004217,0.034440
35,0.291667,569,0.003560,-0.006624,0.018014,0.019985,0.014401,0.000274,-0.028635,0.021956,0.000274,0.016700
35,0.291667,570,0.001917,-0.008924,0.020314,0.021299,0.005859,-0.003339,-0.030278,0.022285,-0.001697,0.017686
35,0.291667,571,-0.004982,-0.010895,0.021956,0.023270,0.005859,-0.001040,-0.030606,0.022285,-0.004653,0.011444
35,0.291667,572,-0.009581,-0.004653,0.019985,0.020971,0.007830,-0.001040,-0.026335,0.026884,-0.003011,0.013744
35,0.291667,573,-0.008596,-0.016151,0.018014,0.021628,0.007830,0.001260,-0.029621,0.026227,0.019328,-0.019108
35,0.291667,574,-0.010238,-0.019765,0.022285,0.027541,0.005531,0.003231,-0.028635,0.022613,-0.000711,0.012758
35,0.291667,575,-0.011552,-0.020751,0.020314,0.022942,0.010130,-0.006624,-0.026993,0.021299,0.000603,0.001260
36,0.300000,576,-0.003011,-0.018451,0.019328,0.026556,0.009801,0.004217,-0.025678,0.023599,-0.026007,-0.018123
36,0.300000,577,-0.005639,-0.007610,0.021299,0.021956,0.012429,-0.002025,-0.029292,0.024913,-0.030935,-0.012538
36,0.300000,578,0.002574,-0.008596,0.024913,0.027541,0.009144,-0.003996,-0.030935,0.023599,0.005202,-0.025350
36,0.300000,579,0.003231,-0.007282,0.023599,0.025899,-0.002682,-0.004653,-0.031592,0.021956,-0.003996,-0.002025
36,0.300000,580,0.001588,-0.009910,0.021628,0.021956,0.007502,-0.010238,-0.027321,0.019985,0.007173,-0.004325
36,0.300000,581,0.006845,-0.010895,0.019328,0.022285,0.010458,-0.002682,-0.025021,0.023928,-0.020422,-0.008267
36,0.300000,582,-0.004653,-0.011881,0.020642,0.020642,0.013086,-0.004325,-0.027321,0.024913,-0.009253,-0.001040
36,0.300000,583,-0.003011,-0.017466,0.020642,0.020971,0.014729,-0.002354,-0.031592,0.027213,0.005531,0.005531
36,0.300000,584,-0.001040,-0.007282,0.021299,0.019657,0.016700,0.000931,-0.028635,0.025242,0.006516,0.017357
36,0.300000,585,0.002245,-0.008596,0.021628,0.019000,0.009144,-0.004653,-0.024036,0.022942,0.012758,0.016700
36,0.300000,586,0.005531,-0.008924,0.021299,0.020314,0.009473,-0.009910,-0.030278,0.022613,0.012429,0.035097
36,0.300000,587,0.004217,-0.008596,0.012758,0.025242,0.008487,-0.007282,-0.030278,0.021628,0.063021,0.036411
36,0.300000,588,0.004217,-0.011224,0.020971,0.028527,-0.000383,-0.004982,-0.031592,0.021628,0.032797,0.044296
36,0.300000,589,0.001588,-0.012209,0.016043,0.021628,0.010458,-0.002682,-0.031920,0.024256,0.034769,0.058422
36,0.300000,590,-0.007939,-0.012209,0.017029,0.023599,0.012101,-0.003011,-0.035205,0.023270,0.046595,0.051523
36,0.300000,591,0.009144,-0.021408,0.021956,0.024585,0.008816,-0.006296,-0.029949,0.019985,0.040682,0.060721
37,0.308333,592,0.013086,-0.006296,0.023270,0.013744,0.006516,-0.003996,-0.030606,0.023599,0.043638,0.056779
37,0.308333,593,0.017029,-0.001697,0.020642,0.017029,0.002902,-0.001040,-0.032249,0.025242,0.043967,0.066635
37,0.308333,594,0.016700,-0.003011,0.019328,0.021956,0.004217,-0.000383,-0.031263,0.023599,0.036083,0.062364
37,0.308333,595,0.002902,-0.001368,0.019328,0.019328,-0.001040,-0.003011,-0.032577,0.026556,0.034112,0.045281
37,0.308333,596,0.000931,-0.006624,0.019000,0.017357,-0.002354,-0.004982,-0.030935,0.015386,0.016372,0.038711
37,0.308333,597,-0.008267,-0.010238,0.020642,0.023928,-0.003996,-0.006624,-0.031592,0.023928,0.034112,0.018671
37,0.308333,598,-0.009581,-0.007610,0.018671,0.009801,-0.000054,-0.010238,-0.027978,0.020971,0.028855,0.051194
37,0.308333,599,-0.009910,-0.004982,0.019328,0.023599,0.002574,-0.014837,-0.028635,0.020971,0.019000,0.031483
37,0.308333,600,-0.006953,-0.001040,0.019657,0.020642,0.002902,-0.003996,-0.034877,0.021628,0.017029,0.029512
37,0.308333,601,-0.009253,-0.003668,0.025570,0.023270,0.001260,-0.001368,-0.026993,0.022285,0.007502,0.025899
37,0.308333,602,-0.007610,-0.006296,0.015058,0.028855,-0.001697,0.000931,-0.029292,0.021299,0.035754,0.005202
37,0.308333,603,-0.006624,-0.008596,0.021299,0.030169,-0.006953,-0.000711,-0.028307,0.023599,0.019328,0.027541
37,0.308333,604,-0.003668,-0.010567,0.019985,0.030169,0.001260,-0.009253,-0.027978,0.026227,0.016372,0.009473
37,0.308333,605,-0.001040,-0.009910,0.019328,0.027870,-0.001368,-0.003339,-0.026335,0.025242,0.007502,-0.002025
37,0.308333,606,-0.003668,-0.015823,0.023928,0.024913,0.000603,-0.004982,-0.027978,0.024256,-0.017794,0.003560
37,0.308333,607,-0.001368,-0.011881,0.022942,0.020971,0.001260,-0.004325,-0.027650,0.023599,0.019328,0.011772
38,0.316667,608,-0.003668,-0.011881,0.022942,0.024913,0.002245,-0.003011,-0.028307,0.028198,0.019000,0.012101
38,0.316667,609,-0.008267,-0.011224,0.023270,0.025242,0.003888,-0.002682,-0.029292,0.021956,0.006188,0.007173
38,0.316667,610,-0.018123,-0.010238,0.022285,0.025570,0.006845,-0.003996,-0.031920,0.029184,0.014401,0.009801
38,0.316667,611,-0.021736,-0.009581,0.019985,0.026884,0.010458,-0.001040,-0.028307,0.020642,0.007830,0.024913
38,0.316667,612,-0.024036,-0.008924,0.027213,0.020971,0.013415,0.005531,-0.028964,0.025242,0.004217,-0.001368
38,0.316667,613,-0.023379,-0.007610,0.022613,0.027541,0.017029,0.004545,-0.029949,0.025570,0.017029,0.013415
38,0.316667,614,-0.016808,-0.010567,0.019328,0.025899,0.011444,0.002245,-0.019437,0.025570,0.024256,0.015715
38,0.316667,615,-0.011224,-0.011881,0.017029,0.028198,0.010130,0.003231,-0.030935,0.023599,0.042324,0.024913
38,0.316667,616,-0.006953,-0.005639,0.018014,0.025899,0.012758,0.000274,-0.030606,0.021956,-0.000383,0.063021
38,0.316667,617,-0.000054,-0.002025,0.019657,0.026227,0.007830,-0.001697,-0.028964,0.024585,0.023270,0.023270
38,0.316667,618,0.005531,0.001588,0.019328,0.025570,0.006845,0.005859,-0.027321,0.025570,0.027541,0.031483
38,0.316667,619,0.007173,0.003888,0.018343,0.026556,0.012101,0.003231,-0.026664,0.024585,0.029841,0.036083
38,0.316667,620,0.009801,0.000931,0.019000,0.028527,0.014072,0.006188,-0.026335,0.022942,0.040682,0.043967
38,0.316667,621,0.003888,0.000603,0.018671,0.025570,0.015715,0.003888,-0.024693,0.023599,0.007830,0.074519
38,0.316667,622,0.005202,-0.004982,0.017029,0.022613,0.025570,0.001260,-0.025678,0.025899,0.021956,0.029512
38,0.316667,623,0.006516,-0.012209,0.019000,0.022942,0.015715,0.008159,-0.026007,0.027213,0.023270,0.040025
39,0.325000,624,0.006845,-0.016151,0.020314,0.023928,0.020971,0.000931,-0.026007,0.020971,0.032469,0.052180
39,0.325000,625,-0.002682,-0.007939,0.017357,0.025570,0.016700,-0.000054,-0.025350,0.028198,0.049880,0.050537
39,0.325000,626,-0.002025,-0.014837,0.011115,0.028198,0.012429,-0.003668,-0.025678,0.022613,0.036083,0.053494
39,0.325000,627,0.000274,-0.008596,0.012429,0.019328,0.014072,-0.001697,-0.029621,0.025242,0.036083,0.052180
39,0.325000,628,0.003888,-0.008596,0.017686,0.020642,0.010787,0.006516,-0.037177,0.027541,0.039696,0.053494
39,0.325000,629,0.009801,-0.010895,0.019657,0.020314,0.009801,0.003231,-0.028307,0.016700,0.021956,0.047252
39,0.325000,630,-0.003011,-0.019437,0.025899,0.021628,0.009801,0.002902,-0.027321,0.029512,0.015386,0.047252
39,0.325000,631,-0.000054,-0.021736,0.014072,0.029184,0.009144,0.003888,-0.027650,0.027213,0.016372,0.022942
39,0.325000,632,0.004874,-0.019437,0.017029,0.018671,0.005859,0.005859,-0.026007,0.023270,0.013086,0.034112
39,0.325000,633,0.002245,-0.012866,0.017357,0.022613,0.006845,0.002574,-0.038819,0.025242,0.016700,0.027541
39,0.325000,634,0.002245,-0.009253,0.016700,0.023599,0.002574,-0.001697,-0.029949,0.023599,-0.000383,0.021299
39,0.325000,635,0.002902,-0.009581,0.016372,0.019657,0.002245,-0.003339,-0.023050,0.022942,0.005859,0.012101
39,0.325000,636,0.004545,-0.014837,0.016043,0.020642,-0.000054,-0.001368,-0.030606,0.019985,0.029841,0.008816
39,0.325000,637,0.003231,-0.009581,0.015715,0.021628,0.006188,-0.012866,-0.027650,0.021956,-0.000054,0.005202
39,0.325000,638,0.013086,-0.010567,0.015715,0.019000,0.003231,0.001917,-0.025021,0.015715,-0.014837,-0.005967
39,0.325000,639,0.001917,-0.014180,0.015715,0.017686,0.004545,0.000931,-0.030606,0.027541,-0.021079,-0.000383
40,0.333333,640,0.005202,-0.018123,0.017357,0.014401,0.003560,0.003560,-0.028307,0.023599,0.000603,-0.012209
40,0.333333,641,0.005202,-0.015494,0.015715,0.017029,0.004874,0.004217,-0.026335,0.022613,0.007830,-0.004653
40,0.333333,642,0.004874,-0.006296,0.017357,0.020314,0.004874,0.005202,-0.027650,0.024256,0.002902,-0.006624
40,0.333333,643,0.014072,0.000931,0.017029,0.021299,0.001260,0.004545,-0.023050,0.029184,-0.014509,-0.017794
40,0.333333,644,0.004545,0.001260,0.018343,0.021299,0.003231,0.001588,-0.026335,0.021628,-0.010567,-0.003339
40,0.333333,645,0.002902,0.002245,0.024585,0.017029,0.004545,0.001917,-0.028635,0.023270,-0.009581,0.000274
40,0.333333,646,0.004217,-0.004982,0.020642,0.024913,0.005202,-0.000711,-0.029621,0.022285,0.001260,0.002245
40,0.333333,647,0.002902,-0.008267,0.021628,0.020314,0.003888,0.001260,-0.026335,0.020642,0.001917,0.018014
40,0.333333,648,-0.007610,-0.006624,0.017029,0.023928,0.006845,-0.000054,-0.034548,0.022613,0.018671,0.029184
40,0.333333,649,0.008816,-0.000711,0.017357,0.024256,0.007502,0.000931,-0.025350,0.027213,0.017686,0.033454
40,0.333333,650,0.005859,-0.000711,0.021628,0.026884,0.011444,0.002574,-0.027978,0.027213,0.028198,0.012429
40,0.333333,651,0.009801,0.001588,0.018671,0.020314,0.015386,0.002574,-0.029292,0.027213,0.029184,0.041667
40,0.333333,652,0.009473,-0.000711,0.020971,0.020971,0.018671,-0.003339,-0.026664,0.022942,0.015386,0.046267
40,0.333333,653,0.005859,-0.012209,0.020642,0.022613,0.021628,0.001588,-0.024693,0.019328,0.009473,0.038382
40,0.333333,654,-0.004325,-0.007610,0.019000,0.023270,0.023928,0.000603,-0.025350,0.025899,-0.004982,0.043967
40,0.333333,655,-0.006624,-0.009253,0.018343,0.021956,0.022613,0.003888,-0.026993,0.028198,0.028198,0.043638
41,0.341667,656,-0.008596,-0.012538,0.017686,0.032140,0.014729,0.005859,-0.027650,0.028855,0.034769,0.059079
41,0.341667,657,-0.003996,-0.013195,0.016372,0.029512,0.022285,0.005859,-0.030278,0.028527,0.035097,0.061707
41,0.341667,658,-0.008267,-0.004325,0.013086,0.033454,0.018343,0.006516,-0.026007,0.025242,0.019657,0.051523
41,0.341667,659,-0.009910,-0.006953,0.011444,0.034769,0.018343,0.010130,-0.026993,0.028198,0.035426,0.032140
41,0.341667,660,-0.006296,-0.004982,0.018343,0.032469,0.018671,0.013086,-0.026993,0.028198,0.022285,0.048566
41,0.341667,661,-0.006296,-0.004325,0.025242,0.031155,0.015715,0.014401,-0.025678,0.030498,0.002245,0.045281
41,0.341667,662,0.001917,-0.005639,0.021956,0.030169,0.012101,0.011772,-0.023379,0.030498,0.027870,0.051851
41,0.341667,663,0.001588,-0.005967,0.021956,0.025570,0.009801,0.006845,-0.026993,0.027870,0.002245,0.044624
41,0.341667,664,0.005859,0.002902,0.011772,0.021628,0.009801,0.003231,-0.026335,0.028855,0.023928,0.042653
41,0.341667,665,0.007502,0.000931,0.018671,0.020971,0.007830,0.001588,-0.027321,0.030826,0.016700,0.032797
41,0.341667,666,0.001588,0.000274,0.016043,0.023599,0.004874,-0.005639,-0.028635,0.032797,0.011444,0.025899
41,0.341667,667,-0.001040,-0.002025,0.015386,0.021956,0.002574,-0.003996,-0.027978,0.030498,0.015058,0.019328
41,0.341667,668,0.002902,-0.012538,0.019000,0.019985,-0.000383,-0.004982,-0.030606,0.028198,0.013744,0.013086
41,0.341667,669,0.000603,-0.004653,0.018014,0.017357,-0.002682,-0.008596,-0.028635,0.028527,-0.007282,0.042653
41,0.341667,670,-0.001040,-0.003996,0.017357,0.014072,0.001917,-0.013195,-0.028635,0.030169,0.003231,-0.002682
41,0.341667,671,-0.007282,-0.005639,0.012758,0.013086,-0.006953,-0.010895,-0.030606,0.031155,0.001260,0.003560
42,0.350000,672,-0.012866,-0.010238,0.015058,0.009144,-0.005639,-0.022722,-0.030278,0.024256,0.016700,-0.000383
42,0.350000,673,-0.014180,-0.017794,0.013744,0.012101,-0.008924,-0.017466,-0.035862,0.026556,0.040353,0.003231
42,0.350000,674,-0.020094,-0.020422,0.011772,0.014072,-0.007282,-0.012209,-0.032906,0.028527,-0.000054,-0.012538
42,0.350000,675,-0.022393,-0.023379,0.009144,0.005859,0.002245,-0.012866,-0.033234,0.027213,0.010787,0.006845
42,0.350000,676,-0.023050,-0.024036,0.011444,0.010787,-0.007610,-0.015823,-0.024036,0.029512,0.015386,0.007502
42,0.350000,677,-0.022065,-0.026007,0.015386,0.007502,-0.006624,-0.015823,-0.033891,0.032140,0.032140,0.017029
42,0.350000,678,-0.014180,-0.025678,0.013086,0.007502,-0.008267,-0.016151,-0.033891,0.029512,0.016700,0.054808
42,0.350000,679,-0.013523,-0.025678,0.011772,0.014072,-0.013523,-0.016480,-0.035205,0.030826,0.022613,0.007502
42,0.350000,680,-0.010567,-0.020751,0.012758,0.007173,-0.017466,-0.010567,-0.035205,0.028855,0.030498,0.040682
42,0.350000,681,-0.010238,-0.014509,0.011772,0.013086,-0.015166,-0.022722,-0.028635,0.030169,0.038054,0.035097
42,0.350000,682,-0.008596,-0.016480,0.010458,0.013744,-0.013852,-0.020422,-0.039148,0.026884,0.049552,0.040353
42,0.350000,683,-0.011552,-0.017466,0.020314,0.012758,-0.012538,-0.020751,-0.038162,0.034112,0.041996,0.029184
42,0.350000,684,-0.010567,-0.018451,0.010130,0.008159,-0.007610,-0.018123,-0.038162,0.030826,0.036083,0.060393
42,0.350000,685,-0.010895,-0.025350,0.011772,0.008159,-0.009253,-0.006296,-0.038491,0.028198,0.037725,0.058750
42,0.350000,686,-0.008267,-0.027650,0.011772,0.011115,-0.005310,-0.020751,-0.038819,0.028855,0.040353,0.055465
42,0.350000,687,-0.006624,-0.031592,0.010787,0.010787,0.001917,-0.008596,-0.038162,0.029184,0.046267,0.045281
43,0.358333,688,-0.006296,-0.026335,0.009801,0.014072,-0.006624,-0.010895,-0.034220,0.027870,0.040353,0.063349
43,0.358333,689,-0.007610,-0.019108,0.007173,0.015058,-0.011224,-0.009910,-0.039805,0.026884,0.035754,0.067292
43,0.358333,690,-0.005639,-0.017794,0.008816,0.015058,-0.002025,-0.012538,-0.040133,0.025570,0.041339,0.058093
43,0.358333,691,-0.012209,-0.012538,0.008487,0.017357,-0.003339,-0.014180,-0.041447,0.026556,0.046924,0.058093
43,0.358333,692,-0.005967,-0.012209,0.010130,0.018671,-0.003668,-0.013195,-0.038491,0.024256,0.029841,0.060721
43,0.358333,693,-0.002354,-0.007610,0.015386,0.019985,-0.006296,-0.019108,-0.041119,0.020971,0.044624,0.058093
43,0.358333,694,-0.001368,-0.008924,0.014072,0.027870,-0.020751,-0.026335,-0.041447,0.017029,0.033454,0.046267
43,0.358333,695,0.002902,-0.005967,0.019000,0.019657,-0.013195,-0.038491,-0.037505,0.013086,0.029841,0.044296
43,0.358333,696,0.012101,-0.000383,0.017357,0.021299,-0.015166,-0.047361,-0.042433,0.017686,0.016372,0.028855
43,0.358333,697,0.008816,0.002574,0.005531,0.023599,-0.018123,-0.047361,-0.042433,0.013744,0.031483,0.022285
43,0.358333,698,0.004217,-0.001697,0.020971,0.015058,-0.015494,-0.046703,-0.042761,0.013086,0.010787,0.020971
43,0.358333,699,-0.001040,-0.007610,0.016700,0.027870,-0.011881,-0.055245,-0.041119,0.008159,0.012429,0.008816
43,0.358333,700,0.000603,-0.008596,0.018671,0.025242,-0.017466,-0.049332,-0.038819,0.007502,0.007502,0.006845
43,0.358333,701,0.005859,-0.017794,0.020314,0.026884,-0.011881,-0.047361,-0.039476,0.005859,0.002902,0.003231
43,0.358333,702,0.008487,-0.000383,0.015715,0.030826,-0.007610,-0.041119,-0.036191,0.015386,-0.015494,0.004217
43,0.358333,703,0.007830,-0.002354,0.022285,0.029184,0.002245,-0.036519,-0.032906,0.013744,0.002245,0.009801
44,0.366667,704,0.009801,0.002902,0.025242,0.030826,-0.001697,-0.030606,-0.035534,0.012101,-0.009910,-0.007610
44,0.366667,705,-0.000054,0.009473,0.026884,0.033783,0.001588,-0.034548,-0.040462,0.009144,-0.000054,-0.009581
44,0.366667,706,0.018343,0.005531,0.033126,0.032797,0.003888,-0.031263,-0.033891,0.000931,-0.005639,-0.009910
44,0.366667,707,0.015386,0.015386,0.035426,0.026556,0.009473,-0.027321,-0.034548,0.006845,-0.013523,-0.008596
44,0.366667,708,0.015058,0.008487,0.029841,0.039696,0.017357,-0.021079,-0.032249,0.004874,-0.003011,-0.003011
44,0.366667,709,0.013744,0.001260,0.029841,0.038382,0.014072,-0.015494,-0.032249,0.003231,-0.001697,-0.009253
44,0.366667,710,0.007173,-0.003339,0.029512,0.037068,0.020314,-0.003668,-0.041447,-0.000383,-0.007610,-0.004653
44,0.366667,711,0.016372,-0.001368,0.037068,0.033783,0.021956,0.001260,-0.037505,-0.004653,-0.018451,0.001917
44,0.366667,712,0.023270,0.004217,0.036083,0.036740,0.022942,0.007173,-0.039805,-0.012538,0.002902,0.001260
44,0.366667,713,0.034112,0.013086,0.035097,0.040682,0.024585,0.013415,-0.045389,-0.020422,0.011444,0.000274
44,0.366667,714,0.029184,0.018343,0.034112,0.044296,0.029841,0.009144,-0.046046,-0.026007,0.010787,0.007502
44,0.366667,715,0.033454,0.025899,0.034440,0.046595,0.030826,0.015386,-0.047361,-0.028635,0.000274,0.005859
44,0.366667,716,0.031483,0.018014,0.035426,0.046924,0.033783,0.015386,-0.049660,-0.035205,0.000603,0.015058
44,0.366667,717,0.030169,0.025899,0.035754,0.048895,0.037397,0.017029,-0.048018,-0.036519,0.003888,0.009144
44,0.366667,718,0.030498,0.025242,0.038711,0.050537,0.032797,0.021628,-0.044732,-0.036191,0.012101,0.015058
44,0.366667,719,0.028855,0.024585,0.037725,0.050537,0.041667,0.028855,-0.046046,-0.031920,0.011444,0.024256
45,0.375000,720,0.030169,0.024256,0.037725,0.049223,0.038711,0.032469,-0.043090,-0.035534,-0.002025,0.012758
45,0.375000,721,0.027541,0.010787,0.037397,0.047252,0.039368,0.031155,-0.044732,-0.032249,-0.004982,0.021628
45,0.375000,722,0.022285,0.016372,0.038382,0.046267,0.039696,0.032469,-0.042104,-0.027650,0.004874,0.014729
45,0.375000,723,0.019657,0.012101,0.038711,0.048238,0.042653,0.032140,-0.036191,-0.025678,0.009801,0.015058
45,0.375000,724,0.020642,0.007502,0.039039,0.045610,0.041010,0.030169,-0.028635,-0.021079,0.015715,0.020314
45,0.375000,725,0.008816,0.002574,0.036740,0.041667,0.042653,0.028527,-0.036848,-0.009910,0.013744,0.024913
45,0.375000,726,0.012758,-0.003668,0.033126,0.039368,0.043638,0.027870,-0.030278,-0.015494,-0.000711,0.044624
45,0.375000,727,0.008487,-0.009581,0.040353,0.039368,0.041010,0.032469,-0.030935,-0.010895,-0.002025,-0.002354
45,0.375000,728,0.005859,-0.012209,0.039696,0.039039,0.036411,0.036740,-0.027978,-0.010567,0.003231,0.012758
45,0.375000,729,0.007502,-0.012209,0.039696,0.038711,0.036411,0.023599,-0.017466,-0.009910,0.011444,0.000603
45,0.375000,730,0.007502,-0.014837,0.038382,0.038054,0.036411,0.024585,-0.026664,-0.008924,0.012101,0.001260
45,0.375000,731,0.004545,-0.013195,0.041010,0.037068,0.045281,0.027213,-0.021408,-0.001368,-0.028635,0.022942
45,0.375000,732,0.000274,-0.021736,0.037397,0.032140,0.054151,0.033126,-0.019108,0.006516,-0.014509,-0.015823
45,0.375000,733,-0.001697,-0.030935,0.037725,0.031812,0.042981,0.045938,-0.017137,0.013415,-0.012538,-0.007939
45,0.375000,734,-0.003339,-0.033563,0.036411,0.029841,0.044953,0.037725,-0.016480,0.024585,0.010458,-0.000711
45,0.375000,735,-0.000054,-0.035205,0.032797,0.034112,0.041996,0.039368,-0.015494,0.022942,0.028855,-0.008267
46,0.383333,736,-0.003011,-0.026664,0.032469,0.027213,0.042324,0.040353,-0.012866,0.029841,-0.000054,-0.001368
46,0.383333,737,-0.004325,-0.025021,0.027213,0.023270,0.046924,0.039696,-0.009581,0.036083,-0.001040,-0.003339
46,0.383333,738,-0.002354,-0.022393,0.028527,0.025570,0.039696,0.040025,-0.009253,0.040353,0.000274,-0.005967
46,0.383333,739,0.003231,-0.019437,0.025570,0.022613,0.036411,0.042324,-0.007939,0.039696,-0.007610,-0.012866
46,0.383333,740,-0.001040,-0.017794,0.023928,0.021299,0.036411,0.040682,-0.007610,0.050537,0.000931,0.004217
46,0.383333,741,0.000931,-0.014180,0.021628,0.018671,0.036411,0.043967,-0.009253,0.049552,0.010130,0.026884
46,0.383333,742,0.001588,-0.005967,0.019985,0.024256,0.036411,0.049552,-0.008596,0.054480,0.009473,0.011115
46,0.383333,743,0.002574,-0.004653,0.020314,0.019000,0.034769,0.052837,-0.006624,0.056779,0.018343,0.014401
46,0.383333,744,0.007173,-0.003668,0.017686,0.018671,0.028855,0.054808,-0.003996,0.058750,0.000603,0.012429
46,0.383333,745,-0.008924,-0.013852,0.025570,0.018343,0.025242,0.051194,-0.008267,0.063678,0.009473,0.001917
46,0.383333,746,-0.010567,-0.018780,0.014729,0.018671,0.023599,0.046267,-0.005967,0.062692,0.025570,0.041010
46,0.383333,747,-0.011552,-0.021736,0.015715,0.015715,0.018671,0.033126,-0.004653,0.066963,0.023270,0.026556
46,0.383333,748,-0.014180,-0.022393,0.014401,0.013744,0.015715,0.039696,-0.004325,0.069263,0.029184,0.032797
46,0.383333,749,-0.015494,-0.014180,0.011772,0.014072,0.012101,0.031483,-0.001697,0.072876,0.023599,0.048566
46,0.383333,750,-0.012538,-0.014509,-0.001697,0.011772,0.004217,0.027541,-0.004653,0.072548,0.036411,0.046595
46,0.383333,751,-0.010238,-0.013523,0.007830,0.005202,0.003888,0.020314,-0.000383,0.069591,0.046267,0.064664
47,0.391667,752,-0.011224,-0.008596,0.009473,0.007502,0.002245,0.009801,-0.002025,0.070248,0.043638,0.050866
47,0.391667,753,-0.002354,-0.007939,0.007502,0.003560,-0.004982,0.019985,0.001588,0.063349,0.033454,0.054808
47,0.391667,754,-0.012866,-0.015823,0.008159,0.001917,-0.006296,0.013744,-0.004325,0.071562,0.031483,0.068277
47,0.391667,755,-0.020094,-0.013523,0.006845,-0.007610,-0.007282,0.012429,-0.002354,0.071234,0.038382,0.078461
47,0.391667,756,-0.022722,-0.017137,0.007830,0.007830,-0.005967,0.009144,-0.005310,0.068934,0.038054,0.057765
47,0.391667,757,-0.022722,-0.021736,0.007830,0.005859,-0.010895,0.004545,-0.006296,0.064335,0.040353,0.052180
47,0.391667,758,-0.027321,-0.023050,0.006845,0.010787,-0.015166,0.009144,-0.010895,0.067620,0.043638,0.045610
47,0.391667,759,-0.021079,-0.021408,-0.003996,0.011444,-0.017794,0.009801,-0.012538,0.064006,0.051851,0.053494
47,0.391667,760,-0.022065,-0.023379,0.011772,0.012429,-0.019108,0.004545,-0.012209,0.064006,0.034112,0.036083
47,0.391667,761,-0.023050,-0.026007,0.007173,0.010458,-0.023050,-0.001368,-0.012209,0.059736,0.031155,0.041667
47,0.391667,762,-0.023379,-0.028964,0.008816,0.016700,-0.017794,-0.011881,-0.012866,0.057765,0.028527,0.030826
47,0.391667,763,-0.018451,-0.025021,0.009801,0.019657,-0.015494,-0.007282,-0.012866,0.058750,0.021628,0.039039
47,0.391667,764,-0.023707,-0.023379,0.009144,0.019985,-0.009253,-0.010238,-0.015494,0.058750,0.019000,0.034440
47,0.391667,765,-0.021736,-0.020094,0.009473,0.019328,-0.015494,-0.013852,-0.016808,0.058422,0.028198,-0.000711
47,0.391667,766,-0.019437,-0.014837,0.009144,0.018343,-0.022722,-0.016808,-0.021079,0.053822,0.025899,0.030826
47,0.391667,767,-0.016480,-0.011881,0.008816,0.019000,-0.016480,-0.025350,-0.020094,0.050209,0.022285,0.023270
48,0.400000,768,-0.014837,-0.010567,0.008487,0.019985,-0.015823,-0.019437,-0.022393,0.056122,0.014729,0.024585
48,0.400000,769,-0.012209,-0.015166,0.010458,0.014729,-0.010895,-0.023379,-0.022065,0.046595,-0.003339,0.023270
48,0.400000,770,-0.006296,-0.012209,0.010458,0.012758,-0.009253,-0.025021,-0.024036,0.043967,0.021628,0.021299
48,0.400000,771,-0.007610,-0.011224,0.011115,0.018671,-0.015166,-0.024036,-0.025350,0.042324,0.021299,0.023270
48,0.400000,772,-0.006953,-0.011552,0.009473,0.016372,-0.006624,-0.019437,-0.031263,0.041996,0.019657,0.024256
48,0.400000,773,-0.010238,-0.011224,0.010130,0.017686,-0.006624,-0.024364,-0.028635,0.048566,0.028855,0.029512
48,0.400000,774,-0.002354,-0.009581,0.006516,0.016700,-0.005639,-0.021736,-0.027321,0.038382,0.028855,0.034769
48,0.400000,775,-0.005639,-0.011224,0.014401,0.018343,0.001260,-0.016480,-0.028635,0.038711,0.019657,0.021628
48,0.400000,776,-0.009253,-0.011552,0.011444,0.020971,0.002245,-0.017137,-0.027650,0.037725,0.034769,0.039696
48,0.400000,777,-0.006624,-0.014180,0.012758,0.018014,-0.000054,-0.018123,-0.024036,0.034112,0.042981,0.045281
48,0.400000,778,-0.004325,-0.016480,0.012429,0.016700,-0.006624,-0.015823,-0.031592,0.029841,0.031812,0.048895
48,0.400000,779,-0.003011,-0.003996,0.007502,0.016372,-0.006624,-0.013852,-0.030278,0.029184,0.030498,0.079447
48,0.400000,780,-0.002025,-0.005310,0.014729,0.018343,-0.003996,-0.015166,-0.030278,0.029512,0.032797,0.042653
48,0.400000,781,-0.004982,-0.001697,0.011444,0.016372,-0.007939,-0.008924,-0.034877,0.030169,0.041010,0.058750
48,0.400000,782,-0.003011,0.000274,0.008487,0.020642,-0.007282,-0.016808,-0.036191,0.034440,0.049223,0.065321
48,0.400000,783,0.001588,-0.009253,0.009144,0.018014,-0.006624,-0.019108,-0.037505,0.023270,0.051851,0.063349
49,0.408333,784,0.000603,-0.000383,0.010458,0.018671,-0.005639,-0.021736,-0.036191,0.027541,0.042981,0.075833
49,0.408333,785,0.000274,-0.001368,0.009144,0.016372,0.006516,-0.022722,-0.035862,0.024585,0.039039,0.065321
49,0.408333,786,0.002902,-0.001040,0.014401,0.018343,-0.000711,-0.022393,-0.035534,0.023928,0.041339,0.073205
49,0.408333,787,-0.000054,-0.000054,0.014401,0.017686,0.000931,-0.024364,-0.038491,0.028527,0.055465,0.083717
49,0.408333,788,0.003560,-0.003011,0.015386,0.019985,-0.000054,-0.022722,-0.037177,0.019328,0.074519,0.072548
49,0.408333,789,0.003560,-0.002025,0.012101,0.028855,0.000603,-0.023707,-0.038491,0.018343,0.026227,0.059736
49,0.408333,790,0.001917,-0.003339,0.014401,0.016372,-0.003011,-0.023379,-0.036519,0.018343,0.062692,0.059736
49,0.408333,791,0.002902,-0.011881,0.014072,0.022942,-0.003339,-0.023379,-0.039476,0.014401,0.043638,0.055465
49,0.408333,792,0.002574,-0.010238,0.015058,0.019328,-0.001040,-0.024036,-0.034877,0.007173,0.023928,0.047909
49,0.408333,793,0.000931,-0.012866,0.020642,0.019985,-0.001040,-0.019437,-0.038162,0.017686,0.023599,0.020971
49,0.408333,794,0.004545,-0.009910,0.010458,0.028855,0.000603,-0.020751,-0.038162,0.013744,0.017029,0.046267
49,0.408333,795,0.006188,-0.006624,0.013086,0.022613,0.001917,-0.025021,-0.038162,0.014072,0.005202,0.019985
49,0.408333,796,0.006516,-0.001697,0.012101,0.026227,0.003888,-0.015166,-0.049003,0.015715,0.003888,0.018014
49,0.408333,797,0.005531,0.008159,0.014072,0.025242,0.006188,-0.015166,-0.032906,0.018014,0.002574,0.019657
49,0.408333,798,0.011115,-0.000711,0.023599,0.024256,0.007173,-0.011881,-0.037177,0.015058,0.008816,0.002245
49,0.408333,799,0.011772,0.003231,0.013744,0.019000,0.016700,-0.008596,-0.039805,0.009473,0.008159,0.010458
50,0.416667,800,0.009801,0.000931,0.016372,0.021628,0.009144,-0.018780,-0.040133,0.008159,0.002574,0.000603
50,0.416667,801,0.016043,0.001260,0.015715,0.024585,0.008487,-0.007610,-0.038162,0.009144,-0.022393,-0.017137
50,0.416667,802,0.008159,0.001917,0.016372,0.022285,0.014072,-0.009910,-0.040462,0.011115,-0.027978,-0.006953
50,0.416667,803,0.010787,-0.002682,0.014729,0.030826,0.010458,-0.003339,-0.037505,0.007502,0.004545,0.002574
50,0.416667,804,0.007830,-0.002354,0.015058,0.020642,0.013415,0.001917,-0.038491,0.012429,0.006845,-0.001368
50,0.416667,805,0.006188,-0.007282,0.016372,0.024256,0.009801,-0.001697,-0.034548,0.009801,0.010130,-0.003668
50,0.416667,806,0.010130,-0.013195,0.017029,0.024256,0.006188,-0.001368,-0.032249,0.007502,-0.006624,-0.013523
50,0.416667,807,-0.001040,-0.021408,0.025899,0.022942,0.005859,-0.008267,-0.039148,0.008487,0.013086,-0.023707
50,0.416667,808,-0.001697,-0.022722,0.026884,0.014072,0.008159,-0.012209,-0.037505,0.010458,0.000274,0.005531
50,0.416667,809,-0.005639,-0.028635,0.025899,0.022285,0.000931,-0.011552,-0.036848,0.011444,0.010787,0.011115
50,0.416667,810,-0.007939,-0.030606,0.029841,0.019328,0.007830,-0.009581,-0.035205,0.012101,0.009473,0.019000
50,0.416667,811,-0.013523,-0.018451,0.027541,0.021956,0.003888,-0.015166,-0.037177,0.013415,0.027870,0.013086
50,0.416667,812,-0.009253,-0.016151,0.022942,0.020314,0.002902,-0.015823,-0.036848,0.013415,0.015386,0.024256
50,0.416667,813,-0.014509,-0.013852,0.026227,0.019657,0.002574,-0.016808,-0.038491,0.011772,0.019657,0.022942
50,0.416667,814,-0.014180,-0.010567,0.027541,0.018343,0.004217,-0.010895,-0.040133,0.011772,0.020642,0.037725
50,0.416667,815,-0.013523,-0.011552,0.030826,0.021299,0.000603,-0.017794,-0.037505,0.010458,0.021299,0.037068
51,0.425000,816,-0.013195,-0.012538,0.028527,0.023270,-0.000054,-0.011552,-0.039805,0.011772,0.030826,0.032140
51,0.425000,817,-0.010238,-0.004653,0.026556,0.023928,-0.001697,-0.011224,-0.036848,0.012101,0.025899,0.035097
51,0.425000,818,-0.010567,-0.009581,0.023599,0.025242,-0.000054,-0.013852,-0.036191,0.010458,0.035097,0.046267
51,0.425000,819,-0.014509,-0.007939,0.023928,0.025242,-0.004653,-0.006953,-0.038819,0.013415,0.024256,0.048566
51,0.425000,820,-0.026993,-0.008924,0.022942,0.026884,-0.002025,-0.006953,-0.042104,0.012101,0.027213,0.041667
51,0.425000,821,-0.009253,-0.006296,0.022942,0.027213,0.000274,-0.006296,-0.033891,0.011444,0.028198,0.022285
51,0.425000,822,-0.008267,-0.005639,0.024913,0.030498,0.001917,-0.008596,-0.036519,0.015386,0.026556,0.010787
51,0.425000,823,0.000931,0.000274,0.022285,0.022613,0.006188,-0.010895,-0.034548,0.013744,0.028527,0.036411
51,0.425000,824,0.009144,0.004217,0.021956,0.026884,0.001917,-0.001040,-0.035534,0.017686,0.016700,0.035426
51,0.425000,825,0.019985,0.000931,0.022942,0.026884,0.006516,-0.007610,-0.033891,0.017686,0.011444,0.025570
51,0.425000,826,0.016043,-0.006953,0.019328,0.028198,0.005531,-0.004982,-0.033563,0.014729,0.030498,0.020642
51,0.425000,827,0.012429,-0.003339,0.012758,0.027213,0.007830,-0.003668,-0.031263,0.016043,-0.000711,0.034440
51,0.425000,828,0.009801,-0.007282,0.020314,0.028855,0.005859,-0.002682,-0.031592,0.016372,0.003560,0.003888
51,0.425000,829,0.007830,-0.006624,0.018671,0.027870,0.004874,0.001260,-0.037834,0.017029,0.001588,0.011444
51,0.425000,830,0.018343,-0.005310,0.018343,0.023928,0.003888,-0.002025,-0.031592,0.008487,-0.014509,-0.003996
51,0.425000,831,0.011115,-0.009581,0.016372,0.024256,0.003560,-0.006953,-0.036191,0.012101,0.000274,-0.005639
52,0.433333,832,0.007830,-0.002025,0.017029,0.025570,0.005531,-0.005967,-0.034877,0.015058,-0.013852,-0.010238
52,0.433333,833,0.005531,-0.005967,0.017029,0.026227,0.001588,-0.009253,-0.032906,0.015058,-0.003668,-0.004982
52,0.433333,834,0.010130,-0.008267,0.017029,0.021299,0.010130,-0.008924,-0.033563,0.015058,-0.003011,-0.006296
52,0.433333,835,0.001260,-0.004982,0.013415,0.024256,0.009473,-0.007939,-0.033891,0.022942,-0.001368,-0.002354
52,0.433333,836,0.005531,-0.004653,0.016372,0.024256,0.014072,-0.007939,-0.032249,0.015058,0.007830,0.002574
52,0.433333,837,0.004874,-0.002025,0.019328,0.022285,0.014401,-0.005639,-0.033234,0.018671,0.001917,-0.006296
52,0.433333,838,0.006188,-0.003996,0.018014,0.020971,0.019657,-0.005639,-0.028635,0.017029,0.012429,-0.003011
52,0.433333,839,0.006188,-0.005310,0.017029,0.024913,0.015715,-0.005310,-0.022722,0.019328,0.017357,0.004217
52,0.433333,840,-0.001368,-0.004653,0.016043,0.027541,0.019328,-0.003996,-0.033563,0.028198,0.030498,0.030498
52,0.433333,841,0.003231,-0.005310,0.014072,0.028855,0.019657,-0.002354,-0.028307,0.018014,0.023928,0.058422
52,0.433333,842,-0.004325,-0.009253,0.020971,0.028527,0.018014,0.000931,-0.032577,0.018343,0.027870,0.029841
52,0.433333,843,-0.004982,-0.001368,0.011772,0.027870,0.016043,0.004874,-0.032906,0.020642,0.027213,0.026556
52,0.433333,844,-0.005639,0.000603,0.022285,0.026227,0.016043,0.004874,-0.025021,0.019328,0.032797,0.030498
52,0.433333,845,0.005531,0.002574,0.022942,0.027870,0.016372,0.007830,-0.033891,0.019657,0.053165,0.036740
52,0.433333,846,0.012429,0.006845,0.027213,0.026556,0.017686,0.008816,-0.030935,0.020642,0.006845,0.074519
52,0.433333,847,0.014729,0.010130,0.019657,0.024256,0.021299,0.006516,-0.030606,0.019328,0.023599,0.029841
53,0.441667,848,0.015715,0.007830,0.021299,0.026556,0.008159,0.013744,-0.029949,0.019000,0.025570,0.036083
53,0.441667,849,0.017357,0.005531,0.022942,0.030826,0.006516,0.010130,-0.027978,0.012101,0.031483,0.050209
53,0.441667,850,0.005202,0.009473,0.018671,0.031812,0.004874,0.008816,-0.031263,0.023928,0.020642,0.052837
53,0.441667,851,0.005531,0.002245,0.020314,0.020642,0.004217,0.009144,-0.031592,0.023270,0.036083,0.060393
53,0.441667,852,0.005202,-0.000383,0.013415,0.027541,0.010787,0.011444,-0.028635,0.020314,0.032140,0.042324
53,0.441667,853,0.007502,-0.005967,0.013415,0.028855,0.006845,0.016372,-0.033563,0.019328,0.024913,0.043967
53,0.441667,854,0.004874,-0.013852,0.016372,0.026227,0.006516,0.013415,-0.030935,0.018343,0.033454,0.047581
53,0.441667,855,-0.000711,-0.021408,0.014401,0.026227,0.007173,0.015058,-0.032249,0.020971,0.058422,0.032140
53,0.441667,856,0.000603,-0.024364,0.014729,0.024585,0.012429,0.009473,-0.028635,0.021956,0.034112,0.063021
53,0.441667,857,-0.003011,-0.026993,0.018014,0.027213,0.015715,0.002574,-0.029292,0.023270,0.017357,0.036083
53,0.441667,858,-0.003668,-0.026993,0.019328,0.020971,0.010787,0.004545,-0.040462,0.024256,0.020971,0.028855
53,0.441667,859,-0.010238,-0.021079,0.020971,0.017357,0.010787,0.001917,-0.030278,0.022285,0.020971,0.016043
53,0.441667,860,-0.014509,-0.030935,0.021956,0.017029,0.013415,0.000931,-0.031592,0.020314,0.041010,0.012429
53,0.441667,861,-0.014509,-0.025350,0.022613,0.013415,0.010787,-0.000383,-0.028635,0.023599,0.008487,0.026556
53,0.441667,862,-0.012866,-0.018451,0.022613,0.014729,0.014729,-0.008924,-0.026664,0.024585,0.007830,0.007830
53,0.441667,863,-0.009581,-0.016808,0.025242,0.009473,0.012758,0.002902,-0.024693,0.024256,0.001917,0.007502
54,0.450000,864,-0.012866,-0.009253,0.022942,0.011444,0.011772,-0.003339,-0.026335,0.026227,-0.010238,0.002902
54,0.450000,865,-0.006953,-0.018123,0.010458,0.015058,0.009801,-0.003339,-0.029292,0.024585,0.015386,-0.011224
54,0.450000,866,-0.002354,-0.022393,0.019985,0.016700,0.013415,-0.005639,-0.029949,0.020314,0.008159,-0.002682
54,0.450000,867,-0.003668,-0.017794,0.019000,0.014401,0.008159,-0.001368,-0.031592,0.019000,0.009801,-0.018123
54,0.450000,868,0.000931,-0.013195,0.021956,0.012101,0.004545,-0.002682,-0.031263,0.020314,0.003560,-0.002682
54,0.450000,869,0.007173,-0.019108,0.022942,0.013415,-0.000383,-0.003011,-0.030278,0.016700,0.005531,-0.002025
54,0.450000,870,0.003560,-0.006624,0.021628,0.017357,-0.000711,-0.002682,-0.028635,0.023599,0.028527,-0.023379
54,0.450000,871,0.005531,-0.003668,0.021956,0.012429,0.004545,-0.003996,-0.028635,0.023270,0.019328,0.017029
54,0.450000,872,0.003231,-0.003668,0.021628,0.013086,0.001917,-0.004325,-0.028307,0.022285,0.017029,0.006845
54,0.450000,873,-0.009581,-0.003339,0.019657,0.014729,0.003560,0.001588,-0.034220,0.023928,0.029841,0.027541
54,0.450000,874,0.007173,0.002574,0.012429,0.018014,0.006188,-0.002354,-0.027978,0.024585,0.020642,0.024585
54,0.450000,875,0.003888,0.000274,0.025242,0.017357,0.010130,-0.004325,-0.028307,0.022613,0.029841,0.010787
54,0.450000,876,0.001588,-0.002025,0.021299,0.020642,0.012101,0.000274,-0.029621,0.024913,0.027213,0.033126
54,0.450000,877,-0.000383,-0.004653,0.020642,0.023270,0.009801,-0.008596,-0.027978,0.025899,0.027541,0.033126
54,0.450000,878,-0.005310,-0.001040,0.017686,0.023928,0.004545,-0.000711,-0.028635,0.027213,0.019985,0.041667
54,0.450000,879,-0.000383,0.000274,0.019000,0.022942,0.003888,-0.001697,-0.024364,0.026227,0.004874,0.045610
55,0.458333,880,-0.002354,-0.002682,0.014729,0.027870,0.009144,-0.003011,-0.024693,0.024256,0.028527,0.049552
55,0.458333,881,-0.007610,0.000274,0.015386,0.032469,-0.002025,-0.001697,-0.026664,0.024913,0.028198,0.052508
55,0.458333,882,-0.006953,-0.004653,0.014729,0.031812,0.008487,-0.002682,-0.026007,0.025242,0.034112,0.051523
55,0.458333,883,-0.015823,-0.005639,0.012101,0.037397,0.009473,-0.003996,-0.028307,0.030826,0.027213,0.052837
55,0.458333,884,-0.010238,-0.007939,0.015058,0.036740,0.011115,-0.007939,-0.026993,0.023928,0.007830,0.047581
55,0.458333,885,-0.003668,-0.008596,0.014072,0.034440,0.015715,-0.009910,-0.026007,0.025242,0.027870,0.058093
55,0.458333,886,0.006188,-0.006953,0.018343,0.031155,0.008816,-0.007282,-0.024693,0.025899,0.018014,0.043638
55,0.458333,887,0.015386,-0.007939,0.020971,0.028855,0.016372,-0.005639,-0.026007,0.026227,0.014401,0.042981
55,0.458333,888,0.005202,-0.005967,0.018014,0.027541,0.014401,-0.005310,-0.026664,0.034112,0.019985,0.047909
55,0.458333,889,0.006188,-0.005310,0.010787,0.026884,0.011115,-0.002682,-0.024364,0.026884,0.024585,0.034112
55,0.458333,890,0.001917,-0.006624,0.017686,0.021956,0.007502,0.002245,-0.027978,0.029512,0.013744,0.027541
55,0.458333,891,-0.004325,-0.009910,0.014401,0.028855,0.004874,0.010787,-0.028307,0.028527,0.006516,0.035754
55,0.458333,892,-0.006953,-0.017466,0.015058,0.028198,0.003560,0.001260,-0.022393,0.027213,0.018014,0.022613
55,0.458333,893,-0.006624,-0.022393,0.014729,0.026556,-0.001040,0.001260,-0.028635,0.027213,0.009801,0.025570
55,0.458333,894,-0.006296,-0.013523,0.015058,0.024256,0.000274,0.000603,-0.028307,0.027541,0.008159,0.016700
55,0.458333,895,-0.003339,-0.011552,0.016372,0.029841,0.000274,0.000274,-0.028307,0.026884,0.001917,0.029512
56,0.466667,896,-0.003996,-0.006953,0.019985,0.026556,0.002245,0.005202,-0.027650,0.028527,-0.008596,0.014729
56,0.466667,897,-0.006624,-0.009253,0.019000,0.027870,0.002245,-0.002682,-0.031592,0.034112,0.009801,0.015058
56,0.466667,898,-0.003011,0.003231,0.023270,0.026556,0.001260,-0.003996,-0.024364,0.030826,0.002245,0.011115
56,0.466667,899,0.001917,-0.003011,0.018343,0.031812,0.002245,-0.005639,-0.026993,0.023928,0.017029,0.020314
56,0.466667,900,0.000274,-0.000054,0.019985,0.021628,0.013086,-0.003996,-0.028964,0.024256,0.011772,0.008159
56,0.466667,901,-0.004653,0.000603,0.018014,0.025570,0.007830,-0.001368,-0.040790,0.025242,0.009801,0.018671
56,0.466667,902,-0.000383,-0.002354,0.021628,0.022613,0.011772,-0.002354,-0.029621,0.015058,0.015715,0.019985
56,0.466667,903,-0.009253,-0.004982,0.028855,0.023599,0.011115,0.001588,-0.031592,0.028198,0.016700,0.000603
56,0.466667,904,-0.004982,-0.004325,0.016700,0.034440,0.010130,0.000603,-0.028307,0.024585,0.011772,0.022285
56,0.466667,905,-0.004982,-0.006624,0.020971,0.022942,0.007502,0.010458,-0.028964,0.024913,0.024585,0.029184
56,0.466667,906,-0.005310,-0.005310,0.020642,0.023928,0.008159,0.001588,-0.036519,0.026556,0.030169,0.033126
56,0.466667,907,-0.003339,-0.001040,0.020971,0.022613,0.007173,-0.001368,-0.026664,0.024256,0.025899,0.044624
56,0.466667,908,0.001917,-0.000383,0.009801,0.022942,0.002574,-0.004653,-0.026007,0.027541,0.020314,0.042981
56,0.466667,909,0.006188,-0.002354,0.018014,0.022613,0.004545,-0.006953,-0.025350,0.025242,0.025570,0.056779
56,0.466667,910,0.009473,-0.003996,0.021628,0.022942,0.008159,-0.017794,-0.025021,0.025242,0.023928,0.029512
56,0.466667,911,0.006516,-0.004653,0.019000,0.024913,0.005859,-0.003011,-0.038162,0.025899,0.032140,0.043638
57,0.475000,912,0.002574,0.000931,0.019000,0.024913,0.003560,-0.003339,-0.030278,0.025570,0.027541,0.055137
57,0.475000,913,0.000931,-0.008267,0.024256,0.024585,0.002245,0.002245,-0.031263,0.023928,0.069263,0.047252
57,0.475000,914,0.001917,-0.007610,0.021299,0.028198,-0.001697,0.003231,-0.030935,0.023270,0.040025,0.063349
57,0.475000,915,0.002245,-0.005967,0.019657,0.024585,0.010458,-0.010238,-0.028307,0.020314,0.036411,0.063349
57,0.475000,916,0.010130,-0.003996,0.018343,0.024913,0.005531,-0.002354,-0.028635,0.026884,0.019657,0.045610
57,0.475000,917,0.008159,-0.008596,0.019000,0.025570,0.007173,0.000603,-0.031592,0.020314,0.016700,0.045610
57,0.475000,918,0.006188,-0.001040,0.021628,0.023270,0.004874,0.003888,-0.029949,0.023599,0.017029,0.041010
57,0.475000,919,0.006188,-0.008596,0.018671,0.029512,0.003888,0.007502,-0.030278,0.023599,0.020971,0.043638
57,0.475000,920,0.005859,-0.005967,0.019000,0.029512,0.007502,0.008816,-0.024693,0.022942,0.007830,0.038711
57,0.475000,921,0.010787,-0.009253,0.018671,0.030169,0.006188,0.008159,-0.026335,0.024913,-0.003011,0.019657
57,0.475000,922,0.002574,-0.009581,0.019000,0.026556,0.005202,0.006516,-0.030935,0.021956,0.019985,-0.001040
57,0.475000,923,0.004545,-0.008596,0.022613,0.028527,0.004217,0.008816,-0.030606,0.025242,0.017686,-0.006624
57,0.475000,924,0.003560,-0.005967,0.020642,0.021956,-0.001697,0.012101,-0.032906,0.024256,0.006188,0.025570
57,0.475000,925,0.002245,-0.008924,0.020971,0.019985,0.002574,0.004874,-0.030935,0.023270,0.009801,0.012758
57,0.475000,926,-0.005967,-0.011881,0.020314,0.017357,0.001260,0.010130,-0.031592,0.031812,0.009473,0.020642
57,0.475000,927,-0.001040,-0.018451,0.027541,0.017686,0.002245,0.007502,-0.028635,0.025899,-0.008596,0.004545
58,0.483333,928,-0.001697,-0.028635,0.023599,0.012758,0.003231,0.003231,-0.029292,0.021956,0.010787,-0.001368
58,0.483333,929,-0.003011,-0.027321,0.020642,0.015715,0.008159,0.007173,-0.031592,0.022285,0.001260,-0.002025
58,0.483333,930,-0.015494,-0.023050,0.019000,0.013415,0.011772,0.002574,-0.029949,0.020971,0.008159,-0.010238
58,0.483333,931,0.002574,-0.016808,0.019985,0.016700,0.018014,0.005859,-0.026007,0.015058,-0.002025,-0.015166
58,0.483333,932,-0.003339,-0.010895,0.019985,0.020314,0.020314,0.005202,-0.029292,0.022942,-0.014837,-0.001040
58,0.483333,933,-0.003668,-0.010567,0.018343,0.017686,0.019657,0.001588,-0.028307,0.020642,0.014072,0.009473
58,0.483333,934,-0.002682,-0.011224,0.016700,0.021956,0.012101,-0.000711,-0.031920,0.022942,0.013415,0.011444
58,0.483333,935,-0.002025,-0.010567,0.015386,0.020642,0.019328,-0.000054,-0.036191,0.021299,0.013086,0.012758
58,0.483333,936,0.001588,-0.005639,0.013744,0.020971,0.017686,-0.002025,-0.029292,0.022942,0.010130,0.009473
58,0.483333,937,-0.000383,-0.012209,0.010130,0.019657,0.017357,-0.004325,-0.030606,0.020314,0.028527,0.004217
58,0.483333,938,-0.002354,-0.018123,0.019657,0.011772,0.019657,-0.005639,-0.030606,0.022285,0.033783,0.021956
58,0.483333,939,-0.002682,-0.023050,0.017686,0.019657,0.020314,-0.012209,-0.030935,0.020314,0.026884,0.020642
58,0.483333,940,0.002574,-0.022722,0.019000,0.019328,0.016700,-0.006296,-0.033563,0.020642,0.021299,0.030498
58,0.483333,941,-0.002025,-0.022393,0.022613,0.017029,0.014072,-0.008267,-0.028307,0.021628,0.003560,0.033783
58,0.483333,942,0.001588,-0.025021,0.013744,0.019328,0.013415,-0.008596,-0.030278,0.020314,0.044296,0.041996
58,0.483333,943,-0.003996,-0.023707,0.020314,0.019657,0.009801,-0.010238,-0.029621,0.019985,0.035754,0.052180
59,0.491667,944,-0.002682,-0.015494,0.020314,0.018671,0.019000,-0.008924,-0.031263,0.025570,0.048238,0.051523
59,0.491667,945,0.000274,-0.012209,0.022613,0.016043,0.017029,-0.006953,-0.030278,0.023270,0.039039,0.055137
59,0.491667,946,0.001917,-0.012866,0.019985,0.015386,0.013744,-0.007610,-0.028964,0.023599,0.027541,0.044953
59,0.491667,947,-0.001368,-0.017466,0.016700,0.016372,0.010458,-0.006953,-0.028964,0.022942,0.041339,0.035754
59,0.491667,948,-0.002682,-0.020094,0.023599,0.016700,0.018671,-0.006953,-0.025350,0.021956,0.027213,0.032140
59,0.491667,949,-0.008267,-0.019765,0.022285,0.022613,0.008159,-0.012866,-0.019108,0.023928,0.036740,0.032140
59,0.491667,950,-0.017794,-0.013523,0.019985,0.023270,0.009801,-0.014837,-0.029621,0.030826,0.047909,0.054151
59,0.491667,951,-0.010238,-0.012538,0.031155,0.022942,0.008159,-0.013523,-0.028307,0.027870,0.030826,0.044624
59,0.491667,952,-0.005967,-0.005639,0.018343,0.032469,0.006516,-0.006953,-0.027650,0.025242,0.019985,0.030826
59,0.491667,953,-0.003011,-0.003668,0.022285,0.022613,0.000274,0.003560,-0.027978,0.025570,0.022942,0.032469
59,0.491667,954,-0.001368,-0.004325,0.020971,0.023270,0.003231,-0.004982,-0.021079,0.023599,0.024585,0.017357
59,0.491667,955,0.001917,-0.009910,0.022285,0.023928,0.005202,-0.003011,-0.029949,0.022942,0.004874,0.021299
59,0.491667,956,0.000603,-0.004325,0.033126,0.023928,0.005531,-0.000383,-0.029949,0.025899,0.010130,0.004217
59,0.491667,957,0.002574,-0.000383,0.024256,0.022613,0.004874,0.002574,-0.029292,0.020971,0.000603,0.009473
59,0.491667,958,0.000603,-0.000711,0.023599,0.018014,0.000274,0.014072,-0.027978,0.022613,-0.000711,0.009144
59,0.491667,959,0.000603,-0.001368,0.020642,0.021956,0.000274,0.002902,-0.028307,0.024256,0.013415,-0.007282
60,0.500000,960,-0.000383,0.003231,0.022285,0.022942,0.000931,0.000603,-0.027650,0.028198,0.035097,0.003888
60,0.500000,961,0.001260,-0.004982,0.029184,0.024256,0.001260,-0.006953,-0.029949,0.027870,0.002902,-0.016151
60,0.500000,962,0.003231,0.000274,0.019000,0.021299,0.006516,-0.006953,-0.029621,0.025242,0.005202,0.003560
60,0.500000,963,0.003231,-0.001368,0.020971,0.021956,-0.000054,-0.011224,-0.026993,0.020642,-0.007939,-0.000711
60,0.500000,964,0.004874,0.002245,0.021628,0.023270,0.003231,-0.002354,-0.026007,0.010787,0.000603,0.004874
60,0.500000,965,-0.002025,0.011444,0.018343,0.022285,0.004545,-0.000711,-0.025350,0.022285,-0.011224,0.008816
60,0.500000,966,0.002574,0.010130,0.019657,0.027870,0.001260,0.005202,-0.029621,0.023928,0.029184,-0.011881
60,0.500000,967,0.006188,0.012429,0.015715,0.023599,0.003560,0.004545,-0.030278,0.024256,0.022285,0.026227
60,0.500000,968,0.007173,0.006845,0.019657,0.028198,-0.000054,0.001917,-0.026993,0.021628,0.017029,0.019000
60,0.500000,969,0.013086,0.004545,0.017357,0.033783,-0.001040,0.000603,-0.026664,0.022613,-0.004325,0.014729
60,0.500000,970,-0.000383,0.001588,0.021956,0.032469,0.002902,-0.004325,-0.030278,0.021299,0.028855,0.003231
60,0.500000,971,-0.002025,-0.001697,0.019000,0.032797,0.004874,-0.006624,-0.029292,0.021628,0.020314,0.028198
60,0.500000,972,-0.003996,-0.004982,0.020314,0.030498,0.006188,-0.003996,-0.029621,0.025899,0.027213,0.036740
60,0.500000,973,-0.004653,-0.001368,0.020314,0.030498,0.004874,-0.006953,-0.031263,0.025570,0.031155,0.032140
60,0.500000,974,-0.005639,0.004874,0.021299,0.028198,0.007830,-0.006624,-0.025021,0.029841,0.028198,0.046595
60,0.500000,975,-0.004325,-0.004325,0.012758,0.028855,0.005859,-0.003339,-0.031263,0.023928,0.059736,0.045938
61,0.508333,976,-0.003996,-0.003668,0.015715,0.027213,-0.000711,-0.004982,-0.030278,0.025570,0.048566,0.060721
61,0.508333,977,-0.005310,-0.004653,0.015715,0.024913,0.007830,0.000931,-0.031263,0.023928,0.041010,0.062364
61,0.508333,978,-0.011224,-0.004982,0.016700,0.026556,0.006845,-0.000711,-0.030278,0.020971,0.044624,0.056122
61,0.508333,979,0.003231,-0.017466,0.019328,0.024256,0.006845,0.001917,-0.030606,0.016700,0.035426,0.056779
61,0.508333,980,0.003231,-0.004982,0.016372,0.023270,0.004874,0.005531,-0.030606,0.022942,0.029184,0.052180
61,0.508333,981,0.006845,-0.003668,0.015058,0.025899,0.008159,0.007173,-0.029949,0.022613,0.026556,0.059407
61,0.508333,982,0.004874,-0.001040,0.016372,0.024913,0.004874,0.015058,-0.030278,0.022942,0.016700,0.049880
61,0.508333,983,-0.001697,-0.002682,0.014072,0.024913,0.003888,0.007830,-0.031263,0.025242,0.020314,0.039039
61,0.508333,984,0.006516,-0.017466,0.012758,0.020314,0.003560,0.013415,-0.028635,0.015715,0.009801,0.028527
61,0.508333,985,-0.000054,-0.007939,0.015058,0.012101,0.002574,0.010130,-0.028964,0.024913,0.009144,0.034769
61,0.508333,986,-0.002354,-0.012538,0.008159,0.024585,0.007173,0.006188,-0.026664,0.023599,0.008816,0.035097
61,0.508333,987,-0.002682,-0.009910,0.013086,0.025570,0.002245,-0.000383,-0.025350,0.024913,-0.005967,0.016700
61,0.508333,988,-0.011881,-0.005967,0.013086,0.026556,0.002245,0.004545,-0.035205,0.025899,0.001260,0.023270
61,0.508333,989,-0.003339,-0.005639,0.017686,0.027213,0.002574,0.003560,-0.026993,0.024585,-0.020422,0.016043
61,0.508333,990,-0.005639,-0.007939,0.009144,0.032797,-0.000054,0.004217,-0.029621,0.024256,0.021956,0.002245
61,0.508333,991,-0.011552,-0.010895,0.013086,0.034112,-0.003011,0.003560,-0.028307,0.023928,0.010787,0.011772
62,0.516667,992,-0.014180,-0.013852,0.010787,0.033454,0.006516,-0.000711,-0.029949,0.027541,0.006188,0.004217
62,0.516667,993,-0.009910,-0.012866,0.009144,0.031155,0.004874,0.007502,-0.026664,0.023599,-0.008267,-0.009910
62,0.516667,994,-0.010895,-0.020422,0.016700,0.025570,0.006845,0.002902,-0.026664,0.025242,-0.033563,-0.003011
62,0.516667,995,-0.002025,-0.017794,0.016372,0.019657,0.006845,-0.003011,-0.026335,0.024585,0.002574,0.008816
62,0.516667,996,-0.001697,-0.014837,0.021299,0.022613,-0.001368,-0.004982,-0.026993,0.021956,0.000274,0.003231
62,0.516667,997,0.000274,-0.011881,0.018014,0.020314,0.005202,-0.003011,-0.028635,0.023599,-0.018780,-0.009581
62,0.516667,998,-0.004653,-0.016480,0.018343,0.020642,0.010458,-0.000054,-0.028307,0.021299,-0.020422,-0.000054
62,0.516667,999,-0.004982,-0.009910,0.018014,0.018343,0.012101,0.000274,-0.029949,0.023599,0.008487,-0.003996
62,0.516667,1000,-0.005310,-0.008267,0.017357,0.018343,0.015386,0.000931,-0.031263,0.022942,0.010787,0.007502
62,0.516667,1001,-0.004653,-0.004325,0.016372,0.025242,0.015386,0.003231,-0.029949,0.022613,0.012429,0.015386
62,0.516667,1002,0.007502,-0.004653,0.019328,0.023928,0.018343,-0.004653,-0.026007,0.021628,0.023928,0.016043
62,0.516667,1003,0.014729,-0.006953,0.021628,0.027541,0.018671,-0.005639,-0.031920,0.021956,0.019985,0.034440
62,0.516667,1004,0.013744,-0.000711,0.017357,0.025570,0.019985,-0.005967,-0.031592,0.021956,0.031812,0.030826
62,0.516667,1005,0.005531,-0.009581,0.023270,0.023928,0.018343,0.001260,-0.031592,0.024585,0.027870,0.025899
62,0.516667,1006,0.002902,-0.017794,0.019985,0.021956,0.017686,-0.007610,-0.028964,0.022613,0.036083,0.038711
62,0.516667,1007,0.002574,-0.024364,0.020314,0.019328,0.008487,-0.003011,-0.023707,0.023928,0.045610,0.048238
63,0.525000,1008,0.004874,-0.017466,0.019328,0.017686,0.012101,-0.000711,-0.032577,0.024256,0.072876,0.049552
63,0.525000,1009,0.008159,-0.018123,0.020971,0.015715,0.016372,-0.002025,-0.030278,0.019985,0.023928,0.081418
63,0.525000,1010,0.004545,-0.014509,0.021956,0.014401,0.015715,0.000603,-0.027978,0.021628,0.033454,0.040025
63,0.525000,1011,-0.000383,-0.017466,0.020642,0.013744,0.010787,0.007173,-0.028964,0.022285,0.030498,0.042653
63,0.525000,1012,0.008487,-0.019765,0.022613,0.010458,0.011115,0.001588,-0.025678,0.016372,0.019000,0.034112
63,0.525000,1013,0.000603,-0.012209,0.022613,0.005859,0.008159,-0.006296,-0.027978,0.025570,0.004874,0.036083
63,0.525000,1014,0.005859,-0.019765,0.027541,-0.007939,0.006845,-0.005967,-0.030606,0.021956,0.021956,0.033126
63,0.525000,1015,-0.000383,-0.018780,0.021299,0.000931,0.011772,-0.004653,-0.031263,0.022285,0.025570,0.032797
63,0.525000,1016,-0.003011,-0.018780,0.023270,0.008487,0.008487,-0.000711,-0.042433,0.021299,0.021299,0.028855
63,0.525000,1017,0.004217,-0.013852,0.025570,0.011115,0.006188,-0.006953,-0.028635,0.009144,0.012758,0.021299
63,0.525000,1018,-0.002682,-0.011224,0.031812,0.013086,0.006845,-0.007939,-0.029621,0.023599,0.015715,0.002902
63,0.525000,1019,0.001260,-0.006624,0.022285,0.011772,0.009473,-0.007610,-0.028307,0.019657,0.016043,0.035754
63,0.525000,1020,0.000603,-0.003668,0.023270,0.014401,0.010458,-0.016808,-0.029621,0.020314,0.004874,0.007502
63,0.525000,1021,-0.002025,0.002245,0.020642,0.019000,0.007173,-0.008596,-0.041119,0.020314,0.007502,0.007502
63,0.525000,1022,-0.004982,0.008816,0.020971,0.020642,0.008487,-0.008267,-0.027978,0.021956,0.004217,-0.003339
63,0.525000,1023,-0.005310,0.000274,0.020314,0.022613,0.010130,-0.005310,-0.030606,0.017357,0.032797,-0.009581
64,0.533333,1024,-0.002682,-0.001040,0.020971,0.025570,0.007502,-0.003996,-0.027978,0.020314,-0.036848,-0.026007
64,0.533333,1025,-0.009581,-0.002682,0.020642,0.025899,0.005202,-0.011552,-0.029292,0.020971,-0.022722,-0.032249
64,0.533333,1026,-0.003668,-0.000711,0.021299,0.026227,-0.001368,-0.003339,-0.029949,0.021628,-0.019765,-0.020751
64,0.533333,1027,-0.006953,0.007173,0.019328,0.027213,-0.003011,-0.006296,-0.026007,0.027213,-0.020094,-0.012866
64,0.533333,1028,-0.004982,-0.002025,0.017357,0.028527,-0.004325,-0.007610,-0.028307,0.021299,0.028855,-0.001040
64,0.533333,1029,-0.003668,-0.006624,0.017029,0.029184,-0.000711,-0.013852,-0.025021,0.022942,0.007502,0.015386
64,0.533333,1030,-0.003996,-0.009581,0.019000,0.024913,0.001588,-0.016480,-0.027321,0.024585,0.007830,0.010787
64,0.533333,1031,-0.012538,-0.012209,0.020642,0.028855,-0.002682,-0.016480,-0.031920,0.026227,0.018014,0.028527
64,0.533333,1032,0.002574,-0.020422,0.022613,0.024256,-0.002682,-0.018123,-0.027321,0.021956,0.014729,0.031812
64,0.533333,1033,0.005531,-0.009581,0.025242,0.014401,-0.000711,-0.016808,-0.025350,0.026227,0.009473,0.042324
64,0.533333,1034,0.007830,-0.011552,0.024256,0.028855,-0.009581,-0.011552,-0.026664,0.026556,0.008487,0.040682
64,0.533333,1035,0.007173,-0.010567,0.021628,0.025570,0.001260,-0.009910,-0.022393,0.025570,0.013415,0.044953
64,0.533333,1036,-0.003996,-0.011881,0.020971,0.028527,0.005531,-0.007610,-0.026664,0.029184,0.024913,0.041010
64,0.533333,1037,-0.004982,-0.015494,0.007502,0.030498,0.007830,-0.004653,-0.027650,0.022285,0.053822,0.032797
64,0.533333,1038,-0.007282,-0.017137,0.023599,0.032797,0.008487,-0.003339,-0.028964,0.026556,0.044296,0.033126
64,0.533333,1039,-0.007282,-0.011224,0.017357,0.029184,0.014401,0.000274,-0.031592,0.023270,0.041010,0.054808
65,0.541667,1040,-0.003996,-0.009253,0.017357,0.032469,0.008816,-0.007939,-0.029949,0.019657,0.040353,0.054151
65,0.541667,1041,-0.005310,-0.002682,0.014072,0.036411,0.007830,-0.004653,-0.032906,0.026884,0.035754,0.055137
65,0.541667,1042,-0.009581,-0.010895,0.017357,0.031812,0.010787,-0.005967,-0.031920,0.020971,0.025242,0.049223
65,0.541667,1043,-0.008924,-0.007610,0.017029,0.024256,0.011772,0.001917,-0.033891,0.021628,0.045610,0.049552
65,0.541667,1044,-0.008267,-0.007939,0.016043,0.027213,0.015058,0.009144,-0.032906,0.025899,0.031483,0.051194
65,0.541667,1045,-0.014837,-0.007610,0.018343,0.024913,0.015058,0.009801,-0.032906,0.026884,0.041996,0.058422
65,0.541667,1046,-0.001697,-0.017794,0.019985,0.023599,0.016372,0.010130,-0.028307,0.023928,0.033126,0.060393
65,0.541667,1047,-0.003996,-0.008924,0.020314,0.017357,0.015715,0.012101,-0.026664,0.025242,0.034112,0.075176
65,0.541667,1048,-0.003668,-0.007282,0.020314,0.018671,0.017029,0.013415,-0.025021,0.025242,0.027541,0.054151
65,0.541667,1049,-0.001697,-0.011224,0.018671,0.023928,0.012758,0.010787,-0.027321,0.023599,0.024585,0.033783
65,0.541667,1050,-0.001368,-0.013523,0.017029,0.029512,0.013415,0.003560,-0.029292,0.024585,0.020314,0.034440
65,0.541667,1051,0.003560,-0.010567,0.017686,0.028855,0.003231,0.000603,-0.031263,0.023270,0.019000,0.027213
65,0.541667,1052,0.012758,-0.001040,0.015058,0.026556,0.002574,-0.000711,-0.031920,0.020314,0.005202,0.045610
65,0.541667,1053,0.013415,-0.000054,0.021299,0.024256,-0.000711,0.003560,-0.032577,0.021628,0.008487,0.017029
65,0.541667,1054,0.010458,0.001588,0.017029,0.025570,0.002902,0.002902,-0.031920,0.021956,0.004874,0.016372
65,0.541667,1055,0.007830,-0.000383,0.020971,0.020971,0.008816,0.002574,-0.024364,0.020642,0.003888,0.004545
66,0.550000,1056,0.009801,-0.003996,0.019328,0.019985,0.010130,0.003560,-0.031920,0.020314,0.005859,0.005202
66,0.550000,1057,0.008159,0.003888,0.010787,0.020642,0.011444,-0.000711,-0.029949,0.023270,-0.001368,0.022285
66,0.550000,1058,0.005859,-0.000383,0.018343,0.022285,0.010130,0.000603,-0.028635,0.024256,0.001917,-0.003668
66,0.550000,1059,-0.001697,-0.001368,0.015058,0.023928,0.008487,0.008816,-0.030606,0.027541,0.003560,0.007502
66,0.550000,1060,-0.006953,-0.001697,0.013086,0.023270,0.009801,0.001588,-0.031920,0.034112,0.020971,0.021628
66,0.550000,1061,0.002245,-0.007282,0.015058,0.020971,0.008159,0.001260,-0.032577,0.023270,0.026227,0.014401
66,0.550000,1062,0.000274,-0.000054,0.018671,0.014729,0.006845,-0.000711,-0.030278,0.025570,0.016700,0.027541
66,0.550000,1063,-0.001040,-0.006953,0.017357,0.020971,0.010130,-0.002682,-0.027321,0.024256,0.014729,0.009144
66,0.550000,1064,-0.000383,-0.013195,0.018014,0.020642,-0.000054,-0.002025,-0.021079,0.023599,0.015715,0.020642
66,0.550000,1065,0.000603,-0.015823,0.019328,0.018343,-0.002354,0.000931,-0.028964,0.018671,0.017686,0.029841
66,0.550000,1066,0.002574,-0.012538,0.022613,0.017686,-0.000711,0.004545,-0.028635,0.022613,0.003231,0.067620
66,0.550000,1067,-0.000054,-0.004982,0.018671,0.026556,-0.003996,0.006188,-0.030606,0.023928,0.015058,0.022285
66,0.550000,1068,0.001260,-0.006296,0.020642,0.018014,-0.003011,0.001588,-0.029949,0.023599,0.024256,0.035754
66,0.550000,1069,-0.002025,-0.003668,0.018014,0.020642,-0.001040,-0.000383,-0.025678,0.023599,0.030498,0.038711
66,0.550000,1070,0.000931,-0.003996,0.018343,0.021299,0.001917,0.005202,-0.034220,0.024913,0.062692,0.050537
66,0.550000,1071,0.003560,-0.006953,0.025242,0.021628,0.006188,0.004874,-0.031263,0.026227,0.017357,0.053494
67,0.558333,1072,0.001917,-0.009910,0.017029,0.016372,0.015386,0.004874,-0.030606,0.025899,0.025242,0.059407
67,0.558333,1073,0.002245,-0.015494,0.019657,0.019328,0.006188,0.009144,-0.030606,0.023270,0.024585,0.055137
67,0.558333,1074,-0.001040,-0.015166,0.023928,0.022613,0.009801,0.003560,-0.029949,0.023928,0.027541,0.048895
67,0.558333,1075,-0.003339,-0.012209,0.022942,0.024913,0.008487,0.001917,-0.026335,0.022942,0.031812,0.046267
67,0.558333,1076,-0.008924,-0.012866,0.023270,0.025899,0.008816,0.002245,-0.031592,0.025242,0.027541,0.022285
67,0.558333,1077,-0.015166,-0.014180,0.020971,0.026556,-0.001368,0.002574,-0.032906,0.021628,0.018014,0.040682
67,0.558333,1078,-0.018123,-0.016151,0.024256,0.021956,0.011115,-0.008924,-0.030606,0.021628,0.023599,0.037068
67,0.558333,1079,-0.012538,-0.013195,0.024256,0.024256,0.009801,-0.002025,-0.029949,0.025570,0.011444,0.019328
67,0.558333,1080,-0.012866,-0.003339,0.026556,0.021299,0.014401,-0.005639,-0.029621,0.023599,-0.001697,0.026556
67,0.558333,1081,-0.006296,-0.014180,0.023928,0.018014,0.013415,-0.004982,-0.030278,0.019328,0.025242,0.034440
67,0.558333,1082,-0.008924,-0.015494,0.019328,0.024585,0.001588,-0.004325,-0.032906,0.020314,0.017357,0.012758
67,0.558333,1083,-0.008596,-0.018451,0.019657,0.021956,0.017029,-0.003011,-0.037505,0.022613,0.014401,0.011444
