Format Version,1.0,
Take Name,TrunkStability_DS_MOCAP_Raw_9,
Capture Frame Rate,1920.00,
Export Frame Rate,120.00,
Capture Start Time,09 Aug 2021 09:22:57 -0400,
Total Frames In Take,1605,
Total Exported Frames,25680,
Coordinate Space,Local,
Device Name,NIDAQ USB-6343 (BNC) 31369206,
Device Type,1,
Device Channel Count,10,
Mocap Rate,120.00,
Mocap Rate Multiple,16.00

MocapFrame, MocapTime, DeviceFrame,ESR,ESL,IntOblR,IntOblL,LatR,LatL,AbsR,AbsL,ExtOblR,ExtOblL
0,0.000000,0,-0.007939,-0.016808,0.022285,0.019000,0.004217,-0.007282,-0.028964,0.023599,0.024585,0.055137
0,0.000000,1,-0.002025,-0.013852,0.023599,0.013086,0.011444,-0.007282,-0.026335,0.022942,0.014072,0.037397
0,0.000000,2,-0.006953,-0.004325,0.019328,0.014729,0.011772,-0.006624,-0.028307,0.029184,0.009144,0.028198
0,0.000000,3,-0.004325,-0.007610,0.015058,0.015058,0.009801,-0.005639,-0.028307,0.024913,0.021299,-0.004982
0,0.000000,4,-0.005310,-0.003996,0.018671,0.011444,0.007502,-0.003339,-0.029621,0.024585,0.005531,-0.000054
0,0.000000,5,-0.005310,-0.011224,0.016700,0.017686,0.008159,-0.004653,-0.026664,0.024256,0.006188,0.000274
0,0.000000,6,-0.008267,-0.015494,0.016372,0.020314,0.008159,-0.002025,-0.026993,0.024913,0.001260,0.005859
0,0.000000,7,-0.009581,-0.014837,0.017029,0.023928,0.007830,0.001588,-0.028307,0.026556,-0.004982,-0.002354
0,0.000000,8,-0.005639,-0.010895,0.010130,0.018671,0.008816,-0.002354,-0.026993,0.025242,0.007830,0.027213
0,0.000000,9,-0.003996,-0.010567,0.019000,0.022942,0.002574,-0.000711,-0.026007,0.026556,0.012101,0.015386
0,0.000000,10,-0.004325,-0.008267,0.017357,0.023928,0.009473,-0.003668,-0.027650,0.025899,0.010458,0.016700
0,0.000000,11,-0.003668,-0.004982,0.015058,0.025570,0.005859,-0.000054,-0.026993,0.025899,0.005202,0.019000
0,0.000000,12,-0.002025,-0.015166,0.017686,0.024256,0.005531,0.000603,-0.028635,0.018343,0.031155,0.016372
0,0.000000,13,-0.003011,-0.009253,0.019000,0.024585,0.005202,0.003888,-0.029621,0.021956,0.004545,0.005202
0,0.000000,14,-0.001040,-0.011881,0.018014,0.019657,0.010458,0.001588,-0.027650,0.021628,0.019000,0.025899
0,0.000000,15,-0.000711,-0.011881,0.017357,0.022613,0.002574,-0.003011,-0.021079,0.023270,0.023270,0.029841
1,0.008333,16,-0.001697,-0.011881,0.020971,0.019985,0.002902,-0.002354,-0.030278,0.024913,0.035426,0.045938
1,0.008333,17,0.001588,-0.012866,0.019328,0.020314,0.002245,-0.003339,-0.030278,0.023270,0.035097,0.046924
1,0.008333,18,0.001588,-0.014180,0.016700,0.027870,-0.002025,-0.005967,-0.030935,0.021628,0.034440,0.053165
1,0.008333,19,0.002245,-0.011224,0.021299,0.020642,-0.001368,-0.006296,-0.032906,0.023270,0.037397,0.048566
1,0.008333,20,0.000931,-0.007939,0.020314,0.021628,-0.001368,-0.007282,-0.025678,0.021956,0.041667,0.048238
1,0.008333,21,0.001260,-0.008596,0.019657,0.021956,0.001260,-0.003668,-0.030278,0.016043,0.043638,0.058422
1,0.008333,22,0.001588,-0.009910,0.025242,0.023599,0.001260,-0.001368,-0.030278,0.024913,0.032469,0.057108
1,0.008333,23,0.000931,-0.009253,0.014401,0.031812,0.000274,-0.002025,-0.030935,0.022942,0.015386,0.051523
1,0.008333,24,-0.001368,-0.007610,0.016700,0.025242,0.007830,-0.006296,-0.028635,0.023599,0.035097,0.045938
1,0.008333,25,0.000274,-0.005967,0.019328,0.022942,0.005531,-0.005310,-0.028635,0.024256,0.033783,0.048238
1,0.008333,26,-0.000383,0.003560,0.018671,0.023270,0.011115,-0.005310,-0.022065,0.028855,0.031812,0.045938
1,0.008333,27,0.003888,-0.004325,0.026884,0.022942,0.010458,-0.001368,-0.029621,0.026556,0.028527,0.026556
1,0.008333,28,0.004874,0.000931,0.014401,0.023599,0.008816,0.001588,-0.031920,0.022942,0.022942,0.038382
1,0.008333,29,0.009144,0.000274,0.016700,0.022942,0.011444,-0.003011,-0.030278,0.022285,0.020642,0.019985
1,0.008333,30,0.014072,0.000931,0.018671,0.022613,0.010458,0.002574,-0.029292,0.009801,0.012429,0.024585
1,0.008333,31,0.008487,-0.000383,0.017686,0.024913,0.008487,0.003560,-0.030935,0.020971,0.008816,0.015715
2,0.016667,32,0.002574,-0.001697,0.019328,0.025899,0.009801,0.002574,-0.029292,0.019657,0.014401,0.007502
2,0.016667,33,0.000274,-0.004653,0.020642,0.029841,-0.001697,0.006845,-0.030278,0.020971,0.009801,0.000603
2,0.016667,34,0.001260,-0.006624,0.021628,0.025242,0.008487,0.006845,-0.026007,0.020642,-0.000711,0.000603
2,0.016667,35,0.006845,-0.005639,0.018343,0.029841,0.004874,0.004874,-0.026664,0.027213,-0.007939,-0.010567
2,0.016667,36,-0.000383,-0.002025,0.008816,0.030498,0.003231,0.004545,-0.028964,0.023599,-0.002025,-0.016808
2,0.016667,37,0.000931,-0.004982,0.024256,0.015715,0.003231,0.002574,-0.027650,0.022942,-0.005967,-0.001368
2,0.016667,38,0.002902,-0.005310,0.021628,0.030826,0.004217,-0.006953,-0.028307,0.020642,-0.003011,-0.020422
2,0.016667,39,0.005531,-0.002682,0.022613,0.026884,0.001260,0.005859,-0.029949,0.019657,-0.005639,-0.007939
2,0.016667,40,0.011444,-0.002025,0.023599,0.025242,-0.000054,-0.000383,-0.031920,0.018343,0.011772,-0.009253
2,0.016667,41,0.014401,0.003888,0.013744,0.026884,-0.003339,-0.002354,-0.029292,0.023928,0.009473,0.001260
2,0.016667,42,0.006516,-0.003668,0.023928,0.030169,0.003560,-0.004325,-0.028635,0.023270,0.015715,0.005202
2,0.016667,43,-0.000383,-0.006296,0.018671,0.026884,0.004874,0.000274,-0.028964,0.024256,0.018343,0.012101
2,0.016667,44,0.000603,-0.007939,0.019657,0.027213,0.002574,-0.003339,-0.029621,0.021628,0.010130,0.009473
2,0.016667,45,-0.000383,-0.017466,0.020971,0.024256,0.004217,-0.004325,-0.030606,0.019657,0.022613,0.019657
2,0.016667,46,-0.001368,-0.009253,0.020314,0.025242,0.004545,-0.001697,-0.027978,0.025570,0.012101,0.031483
2,0.016667,47,-0.001368,-0.010567,0.018014,0.022285,0.010458,-0.003668,-0.026993,0.022942,0.021628,0.039039
3,0.025000,48,-0.001368,-0.006624,0.021628,0.021956,0.005859,-0.001368,-0.028964,0.026227,0.032469,0.038382
3,0.025000,49,-0.007939,-0.002354,0.021628,0.020642,0.005202,-0.003339,-0.032906,0.025570,0.044953,0.049223
3,0.025000,50,0.011115,-0.000054,0.020971,0.020971,0.005859,-0.000054,-0.026335,0.018671,0.029184,0.045610
3,0.025000,51,0.003560,0.005531,0.024585,0.020642,0.008816,-0.001040,-0.027978,0.025570,0.043310,0.035097
3,0.025000,52,0.003231,-0.000711,0.019328,0.022942,0.014729,-0.000383,-0.026007,0.021956,0.034769,0.062035
3,0.025000,53,0.001917,-0.003668,0.021628,0.026227,0.013415,-0.003339,-0.026993,0.021956,0.026556,0.052180
3,0.025000,54,-0.008924,-0.002682,0.017029,0.026884,0.015715,0.002574,-0.034548,0.024256,0.026556,0.060393
3,0.025000,55,-0.001697,-0.002025,0.019657,0.026884,0.014401,0.000931,-0.024693,0.024256,0.009473,0.050537
3,0.025000,56,-0.003996,-0.006624,0.012429,0.028198,0.009144,0.003888,-0.026664,0.024585,0.038711,0.035754
3,0.025000,57,-0.004325,-0.008267,0.018014,0.027213,0.006845,0.000931,-0.025350,0.025570,0.026556,0.053822
3,0.025000,58,-0.004653,-0.010567,0.018343,0.020314,0.002245,0.001588,-0.027978,0.024913,0.025242,0.052180
3,0.025000,59,-0.005967,-0.012538,0.016372,0.027541,0.003231,-0.002354,-0.027321,0.025899,0.023599,0.046924
3,0.025000,60,-0.006296,-0.015166,0.022285,0.020642,0.004217,0.001260,-0.028635,0.024585,0.000274,0.037725
3,0.025000,61,-0.005310,-0.015494,0.018343,0.015386,0.002574,-0.000383,-0.028964,0.027213,0.018343,0.030826
3,0.025000,62,-0.005639,-0.019108,0.019000,0.020971,0.000931,0.001588,-0.026993,0.025570,0.005202,0.025570
3,0.025000,63,-0.001368,-0.021736,0.019985,0.018671,0.001588,0.000274,-0.024036,0.025570,0.006516,0.020314
4,0.033333,64,-0.005639,-0.015494,0.016372,0.021956,0.000931,-0.002025,-0.030935,0.033783,0.009801,0.026556
4,0.033333,65,0.000274,-0.010895,0.011772,0.022285,0.003231,-0.002682,-0.027978,0.028527,0.010787,0.015386
4,0.033333,66,-0.001697,-0.010567,0.020314,0.019657,0.002902,-0.000054,-0.028307,0.030169,0.009473,0.004217
4,0.033333,67,-0.005639,-0.013195,0.017029,0.019000,0.002574,-0.001368,-0.026335,0.030169,0.002902,0.005531
4,0.033333,68,-0.002682,-0.020751,0.019657,0.017357,0.005202,-0.001040,-0.022065,0.029512,-0.001040,0.002245
4,0.033333,69,-0.005639,-0.020751,0.018671,0.019657,0.007502,-0.001368,-0.030278,0.035754,0.016372,0.013744
4,0.033333,70,-0.003339,-0.022393,0.025899,0.019328,0.009801,-0.009253,-0.027650,0.028527,-0.003011,0.030826
4,0.033333,71,-0.002025,-0.019437,0.019328,0.022942,0.008159,-0.012866,-0.029292,0.026227,0.003888,-0.004653
4,0.033333,72,-0.006624,-0.017466,0.018671,0.020642,0.009144,-0.016480,-0.028964,0.023928,0.019985,0.012429
4,0.033333,73,-0.008267,-0.019437,0.017686,0.021956,0.008487,-0.022393,-0.023707,0.020314,0.024256,0.003231
4,0.033333,74,-0.010567,-0.012866,0.018343,0.019328,0.011772,-0.016808,-0.027650,0.024585,0.012101,0.017686
4,0.033333,75,-0.003996,-0.017794,0.024256,0.019000,0.011444,-0.012538,-0.030935,0.019985,0.009144,0.049880
4,0.033333,76,-0.000711,-0.013852,0.018671,0.017029,0.014072,-0.011881,-0.028964,0.021956,0.017357,0.010458
4,0.033333,77,0.001588,-0.011552,0.021956,0.015058,0.004545,-0.004982,-0.029292,0.021956,0.019000,0.022613
4,0.033333,78,0.000931,-0.007282,0.023599,0.017029,0.010130,-0.010238,-0.029621,0.021956,0.033126,0.043638
4,0.033333,79,-0.000383,0.002902,0.021628,0.021628,0.010130,-0.005639,-0.027321,0.028198,0.055137,0.044296
5,0.041667,80,0.001917,-0.005310,0.019657,0.026556,0.012429,-0.002682,-0.028635,0.024256,0.027213,0.042981
5,0.041667,81,0.000274,-0.004325,0.018343,0.018014,0.008816,-0.000054,-0.030606,0.024913,0.036740,0.050209
5,0.041667,82,0.000274,-0.004982,0.019000,0.018343,0.013744,0.002902,-0.042761,0.023270,0.039368,0.048238
5,0.041667,83,0.001917,-0.003996,0.019328,0.017686,0.013744,0.004545,-0.031592,0.029184,0.041667,0.055794
5,0.041667,84,0.004874,-0.004653,0.019657,0.016700,0.012429,0.004217,-0.030278,0.021956,0.033454,0.054151
5,0.041667,85,0.001917,-0.008596,0.015715,0.025899,0.006516,0.003560,-0.030606,0.020642,0.044296,0.060064
5,0.041667,86,0.002902,-0.007939,0.020314,0.018343,0.003231,0.012758,-0.033891,0.019000,0.031483,0.059407
5,0.041667,87,0.001260,-0.005310,0.020314,0.022942,0.010130,0.012429,-0.037834,0.021299,0.030169,0.055794
5,0.041667,88,-0.001368,-0.000054,0.018343,0.020314,0.010787,0.006845,-0.030278,0.024913,0.039368,0.046595
5,0.041667,89,-0.000383,-0.009253,0.024585,0.021299,0.009801,0.009473,-0.030278,0.022285,0.054808,0.033783
5,0.041667,90,-0.000054,-0.005639,0.016700,0.022285,0.008487,0.005531,-0.029292,0.023599,0.034112,0.053165
5,0.041667,91,0.002245,-0.006953,0.020971,0.023270,0.015715,-0.007282,-0.026993,0.021628,0.023599,0.043310
5,0.041667,92,0.008816,-0.005967,0.020971,0.022613,0.012429,0.005531,-0.029621,0.022613,0.014401,0.038054
5,0.041667,93,-0.000383,0.000274,0.019985,0.022942,0.016700,0.006188,-0.029621,0.022942,0.007173,0.031812
5,0.041667,94,0.001588,-0.005639,0.019000,0.024256,0.018014,0.012758,-0.032249,0.018014,0.055794,0.024913
5,0.041667,95,-0.000054,-0.004653,0.019000,0.027541,0.011115,0.013744,-0.032577,0.019985,0.012429,0.024913
6,0.050000,96,0.000274,-0.003011,0.014729,0.023928,0.024256,0.013415,-0.031920,0.019985,0.026227,0.016043
6,0.050000,97,0.002902,-0.003996,0.016372,0.026556,0.019000,0.007830,-0.028964,0.024256,-0.007282,0.007173
6,0.050000,98,0.001260,-0.014837,0.017686,0.026227,0.019985,0.005202,-0.030278,0.018343,-0.016151,0.003560
6,0.050000,99,-0.001040,-0.002354,0.021628,0.024256,0.014401,0.000931,-0.030606,0.023599,-0.003011,-0.009253
6,0.050000,100,-0.000054,-0.007282,0.019985,0.028527,0.008487,-0.001040,-0.031263,0.020642,-0.006953,-0.002682
6,0.050000,101,-0.000054,-0.006953,0.019000,0.024913,0.006516,-0.005310,-0.026335,0.021299,-0.009253,-0.007939
6,0.050000,102,-0.010895,-0.006296,0.017029,0.028527,0.011444,-0.003996,-0.032249,0.024585,0.006188,0.000274
6,0.050000,103,0.001260,-0.004982,0.012101,0.030169,0.011772,-0.002682,-0.028964,0.024585,-0.002682,-0.002025
6,0.050000,104,-0.003668,-0.010238,0.022613,0.033783,0.009144,-0.002354,-0.031263,0.025242,0.014729,-0.014509
6,0.050000,105,-0.003011,-0.010238,0.015058,0.029841,0.009473,0.000931,-0.031592,0.022613,0.011772,0.018014
6,0.050000,106,-0.000711,-0.012866,0.016700,0.026556,0.008487,-0.008924,-0.028964,0.021299,0.011444,0.011772
6,0.050000,107,0.003231,-0.016480,0.017357,0.023599,0.006845,-0.004325,-0.027650,0.017029,0.016700,0.002902
6,0.050000,108,0.000603,-0.001040,0.022285,0.020642,0.005202,-0.005310,-0.027321,0.024585,-0.008267,0.017029
6,0.050000,109,0.001917,0.000603,0.019328,0.020314,0.001917,-0.005639,-0.030278,0.021956,0.019000,0.020314
6,0.050000,110,-0.000054,0.001917,0.021299,0.021299,-0.000054,0.000931,-0.030278,0.022285,0.020314,0.030826
6,0.050000,111,-0.003668,0.000274,0.020971,0.021628,0.003560,-0.007282,-0.034877,0.030169,0.042653,0.043638
7,0.058333,112,0.007502,-0.005310,0.022613,0.020971,0.002902,-0.003668,-0.030606,0.015058,0.030498,0.027870
7,0.058333,113,0.000931,-0.002354,0.019328,0.024256,-0.000383,-0.003668,-0.031263,0.021299,0.025570,0.040682
7,0.058333,114,-0.000383,-0.003668,0.021299,0.015386,0.000931,-0.004982,-0.030606,0.020971,0.032797,0.043638
7,0.058333,115,-0.000054,-0.008924,0.019985,0.022613,0.004545,-0.005639,-0.031263,0.021956,0.034112,0.044296
7,0.058333,116,0.003231,-0.011224,0.020971,0.024913,0.009144,-0.003996,-0.031592,0.022942,0.035754,0.052508
7,0.058333,117,-0.001040,-0.010567,0.019985,0.024585,0.002245,-0.005310,-0.032577,0.028855,0.027870,0.053822
7,0.058333,118,-0.000054,-0.007939,0.011772,0.025242,-0.002025,-0.005310,-0.029949,0.020971,0.040025,0.046924
7,0.058333,119,-0.000711,-0.010567,0.020642,0.019657,-0.005310,-0.002354,-0.029292,0.023928,0.033126,0.044296
7,0.058333,120,-0.001697,-0.009581,0.018343,0.023599,-0.008924,0.004217,-0.028635,0.024585,0.027870,0.047581
7,0.058333,121,0.001588,-0.009910,0.019000,0.022942,-0.007939,-0.007282,-0.021079,0.025570,0.036740,0.045938
7,0.058333,122,0.002902,-0.012866,0.019000,0.023270,-0.005310,-0.006296,-0.029949,0.019985,0.025242,0.043967
7,0.058333,123,0.003231,-0.003996,0.014072,0.023599,-0.003011,-0.006624,-0.027978,0.019985,0.016372,0.054808
7,0.058333,124,0.001588,-0.003668,0.020642,0.022942,0.001917,-0.004325,-0.029949,0.020314,0.020314,0.027541
7,0.058333,125,-0.002025,0.002902,0.018014,0.025570,-0.003011,0.001260,-0.032577,0.022942,0.012101,0.028198
7,0.058333,126,-0.006296,0.000274,0.018343,0.024256,0.000931,-0.006953,-0.035205,0.028198,0.032469,0.033454
7,0.058333,127,0.000931,-0.001368,0.018014,0.024913,-0.000054,-0.003668,-0.033234,0.019000,0.052837,0.018343
8,0.066667,128,-0.000054,-0.004325,0.017357,0.027541,0.001588,-0.001368,-0.030278,0.022613,0.006516,0.000603
8,0.066667,129,-0.000383,-0.007282,0.015386,0.021299,0.009473,-0.004325,-0.031592,0.021956,0.007830,0.010458
8,0.066667,130,-0.003011,-0.005967,0.015386,0.024913,-0.002025,-0.007282,-0.028307,0.023599,0.008816,0.008487
8,0.066667,131,-0.004982,-0.007610,0.018343,0.021628,0.004874,-0.008596,-0.032577,0.028527,0.019000,0.012101
8,0.066667,132,0.000931,-0.005639,0.021299,0.022613,0.008487,-0.006953,-0.028635,0.025570,0.002902,0.041010
8,0.066667,133,0.000603,-0.001368,0.012101,0.030826,0.007173,-0.005967,-0.029292,0.023599,-0.003668,0.001260
8,0.066667,134,0.001588,-0.001368,0.014401,0.020642,0.006845,-0.000711,-0.028964,0.022613,0.005531,0.012758
8,0.066667,135,0.003560,-0.001368,0.015386,0.022942,0.010787,-0.011881,-0.028635,0.023270,0.010130,0.011444
8,0.066667,136,0.002574,-0.003339,0.019985,0.016700,0.010787,-0.013195,-0.029621,0.022285,0.010458,0.008487
8,0.066667,137,0.002902,-0.006953,0.026884,0.023270,0.010458,-0.013195,-0.029949,0.022613,-0.001697,0.028527
8,0.066667,138,-0.001368,-0.006953,0.017029,0.021628,0.015058,-0.011224,-0.029949,0.020971,0.013086,0.013086
8,0.066667,139,-0.000711,-0.011552,0.019328,0.020971,0.010458,-0.008924,-0.029949,0.020314,0.014072,0.013415
8,0.066667,140,-0.004982,-0.006953,0.018343,0.020971,0.013415,-0.009253,-0.030606,0.022942,0.016372,0.026227
8,0.066667,141,-0.003668,0.005859,0.019985,0.021299,0.013744,-0.008924,-0.028307,0.027213,0.014401,0.032797
8,0.066667,142,0.003888,0.001917,0.021628,0.024585,0.011772,-0.006624,-0.031263,0.021299,0.050866,0.022942
8,0.066667,143,0.005859,0.002902,0.021956,0.025570,-0.000711,-0.006624,-0.031920,0.021628,0.026556,0.047581
9,0.075000,144,0.008816,-0.000383,0.022613,0.025242,0.014729,-0.018780,-0.031263,0.022285,0.035754,0.041010
9,0.075000,145,0.009144,-0.003996,0.021299,0.022942,0.011444,-0.008596,-0.031920,0.026227,0.034112,0.046924
9,0.075000,146,-0.002354,-0.006953,0.019657,0.019000,0.013415,-0.006953,-0.032906,0.022613,0.030169,0.055794
9,0.075000,147,-0.002354,-0.014509,0.023928,0.008487,0.012429,-0.006624,-0.028307,0.021956,0.036411,0.069263
9,0.075000,148,-0.002682,-0.018123,0.024585,0.026227,0.003560,-0.005639,-0.027650,0.023270,0.037397,0.056779
9,0.075000,149,-0.003011,-0.022065,0.020971,0.025242,0.008816,-0.011224,-0.025678,0.021628,0.027541,0.060393
9,0.075000,150,0.003231,-0.020094,0.019328,0.028855,0.008487,0.003888,-0.022065,0.023270,0.006845,0.047909
9,0.075000,151,-0.004653,-0.021079,0.020642,0.027870,0.012101,0.005531,-0.027321,0.024256,0.034440,0.039368
9,0.075000,152,-0.000383,-0.016480,0.027213,0.016700,0.014729,0.004545,-0.026335,0.027870,0.013415,0.041667
9,0.075000,153,-0.001368,-0.019108,0.021956,0.025242,0.018014,0.002574,-0.026993,0.026884,0.017686,0.038711
9,0.075000,154,-0.001368,-0.019108,0.022942,0.021628,0.017029,0.012101,-0.025021,0.025242,0.014072,0.039696
9,0.075000,155,-0.003339,-0.010895,0.020642,0.020971,0.020642,0.009144,-0.031263,0.030169,0.013744,0.038382
9,0.075000,156,-0.001040,-0.011881,0.025570,0.018014,0.021628,0.010787,-0.032577,0.026227,0.015058,0.042324
9,0.075000,157,0.000274,-0.009910,0.017686,0.017357,0.020971,0.011772,-0.032577,0.024585,0.038382,0.048566
9,0.075000,158,-0.002354,-0.002025,0.017686,0.020971,0.019000,0.017029,-0.031592,0.023599,0.025242,0.034112
9,0.075000,159,-0.000383,-0.000054,0.019000,0.019657,0.014401,0.012101,-0.028635,0.030169,0.018014,0.024256
10,0.083333,160,0.005202,-0.003339,0.018343,0.016043,0.016043,0.017686,-0.026664,0.025242,0.002245,0.011444
10,0.083333,161,-0.001368,-0.009581,0.017357,0.018014,0.015715,0.015715,-0.027650,0.029512,0.000274,0.017029
10,0.083333,162,-0.003011,-0.022393,0.018671,0.018343,0.014072,0.015715,-0.026664,0.025570,-0.020751,0.008159
10,0.083333,163,-0.003339,-0.013523,0.020971,0.019985,0.010130,0.012758,-0.027978,0.024256,-0.004325,0.010130
10,0.083333,164,-0.015166,-0.013852,0.018343,0.019657,0.007830,0.011772,-0.034220,0.024913,0.009473,0.004545
10,0.083333,165,-0.004325,-0.015166,0.019000,0.021299,0.003888,0.010787,-0.026993,0.018343,-0.012538,-0.004653
10,0.083333,166,-0.005967,-0.014837,0.021299,0.026556,-0.000711,0.012101,-0.029292,0.023928,0.006845,-0.014180
10,0.083333,167,-0.005310,-0.012538,0.017686,0.018671,-0.002025,0.009801,-0.029949,0.021299,0.002245,0.008487
10,0.083333,168,-0.001368,-0.012538,0.016700,0.024913,-0.003339,0.005531,-0.031592,0.022942,0.011444,0.004545
10,0.083333,169,0.003231,-0.009910,0.018343,0.024585,-0.004982,0.012101,-0.030606,0.020971,0.001260,0.010130
10,0.083333,170,-0.002354,-0.008596,0.021628,0.025242,-0.005967,0.009144,-0.029292,0.023270,-0.010238,0.019000
10,0.083333,171,-0.002682,-0.010895,0.012429,0.026556,-0.005310,0.008487,-0.029621,0.020642,0.026556,0.003231
10,0.083333,172,-0.004653,-0.013523,0.016043,0.026884,-0.006953,0.006516,-0.031592,0.023270,0.018014,0.041010
10,0.083333,173,-0.005639,-0.010895,0.016700,0.028527,0.001588,0.002245,-0.029621,0.023599,0.023270,0.036083
10,0.083333,174,-0.005639,-0.008596,0.019328,0.029512,0.000274,0.005859,-0.030278,0.024585,0.015386,0.040025
10,0.083333,175,-0.004653,-0.015166,0.020642,0.026227,0.003231,0.004545,-0.029292,0.021628,0.005202,0.035097
11,0.091667,176,-0.003339,-0.009581,0.022285,0.020314,0.001260,0.006188,-0.029292,0.025242,0.033783,0.039696
11,0.091667,177,-0.001040,-0.009581,0.021956,0.026227,-0.000383,0.006188,-0.026993,0.022613,0.029184,0.043967
11,0.091667,178,-0.001040,-0.008924,0.019985,0.025899,0.004545,0.001917,-0.022065,0.022942,0.033783,0.039039
11,0.091667,179,-0.005639,-0.008596,0.020642,0.025899,0.008816,0.000931,-0.035205,0.029841,0.053822,0.060721
11,0.091667,180,0.000931,-0.006624,0.015715,0.027213,0.011772,-0.000383,-0.029621,0.019985,0.037397,0.089959
11,0.091667,181,-0.001368,-0.008924,0.021299,0.030498,0.008487,0.000931,-0.031920,0.022285,0.032469,0.044296
11,0.091667,182,0.001260,-0.009581,0.021628,0.024913,0.006516,0.002245,-0.030935,0.019657,0.033454,0.056122
11,0.091667,183,-0.000054,-0.009253,0.020642,0.027213,0.012429,-0.010238,-0.022065,0.021299,0.037397,0.042653
11,0.091667,184,0.000931,-0.013523,0.019657,0.026884,0.016700,-0.007610,-0.031263,0.020314,0.024913,0.039368
11,0.091667,185,0.001917,-0.007939,0.019657,0.025570,0.021956,-0.009253,-0.028635,0.020642,0.002574,0.075176
11,0.091667,186,0.002574,-0.006953,0.024913,0.026227,0.023270,-0.013195,-0.029292,0.021299,0.014401,0.030169
11,0.091667,187,0.002245,-0.005639,0.023599,0.026556,0.017029,-0.012209,-0.030606,0.023270,-0.005639,0.014401
11,0.091667,188,0.002245,-0.005310,0.023928,0.023599,0.019657,-0.013195,-0.031592,0.019328,0.003560,0.011115
11,0.091667,189,-0.001697,-0.000711,0.022942,0.028527,0.019000,-0.011224,-0.031920,0.023928,0.027213,0.002574
11,0.091667,190,-0.001040,-0.006624,0.022613,0.024585,0.020642,-0.012866,-0.029949,0.021956,-0.007939,0.034112
11,0.091667,191,-0.000711,-0.007282,0.021956,0.026556,0.026556,-0.011552,-0.030278,0.021299,0.005531,-0.005310
12,0.100000,192,0.002902,-0.008924,0.023928,0.025242,0.013086,-0.007610,-0.027978,0.020642,0.001917,-0.000054
12,0.100000,193,0.008487,-0.006624,0.023928,0.025570,0.012758,-0.010567,-0.025021,0.010458,0.003231,0.001260
12,0.100000,194,-0.002354,0.002245,0.022942,0.024585,0.011115,-0.010238,-0.025350,0.024585,0.003888,-0.005639
12,0.100000,195,-0.000711,-0.007282,0.019328,0.032469,0.010130,-0.011224,-0.027650,0.023270,0.001917,-0.019108
12,0.100000,196,-0.000054,-0.007610,0.020971,0.024585,0.001588,-0.011224,-0.027978,0.023599,0.016372,-0.001697
12,0.100000,197,0.000274,-0.006624,0.021956,0.024585,0.006845,-0.008596,-0.038819,0.024585,0.013415,-0.004325
12,0.100000,198,0.009144,-0.006953,0.020314,0.024256,0.004874,-0.008596,-0.024364,0.012101,-0.002025,-0.009910
12,0.100000,199,-0.003011,-0.009253,0.027213,0.022613,0.002902,-0.011552,-0.029621,0.022942,0.017029,-0.025350
12,0.100000,200,0.001260,-0.008596,0.019657,0.024256,0.002574,-0.010567,-0.026664,0.020642,0.015386,0.013415
12,0.100000,201,0.000931,-0.008596,0.023599,0.021299,0.000603,-0.008596,-0.027650,0.021628,0.008487,0.007173
12,0.100000,202,-0.000711,-0.007610,0.023599,0.021628,-0.000711,-0.003668,-0.027650,0.021628,0.014729,0.010787
12,0.100000,203,-0.001368,-0.012209,0.020642,0.022285,-0.003668,-0.010238,-0.031263,0.020314,0.020314,0.015386
12,0.100000,204,-0.003339,-0.006296,0.011772,0.023928,-0.008267,-0.009253,-0.029949,0.019000,0.038382,0.010130
12,0.100000,205,-0.001368,-0.005967,0.018014,0.025899,-0.018780,-0.007610,-0.029621,0.020642,0.028527,0.016043
12,0.100000,206,0.000931,-0.003339,0.017357,0.020642,-0.003011,-0.001697,-0.031263,0.021956,0.026227,0.034769
12,0.100000,207,-0.010567,-0.002354,0.016700,0.022285,-0.004325,-0.003339,-0.033891,0.023599,0.038382,0.036740
13,0.108333,208,0.003560,-0.013852,0.021299,0.021299,0.000603,-0.007282,-0.030278,0.019985,0.033126,0.036411
13,0.108333,209,0.000931,-0.003339,0.022613,0.016043,0.008816,-0.009581,-0.029621,0.022613,0.032469,0.043967
13,0.108333,210,-0.000383,-0.005967,0.019328,0.028527,-0.000711,-0.007610,-0.029292,0.023599,0.035754,0.044624
13,0.108333,211,-0.000054,-0.006624,0.017357,0.023928,0.013415,-0.008267,-0.026993,0.023599,0.037397,0.053494
13,0.108333,212,-0.005310,-0.003996,0.014401,0.023270,0.015058,-0.005967,-0.030278,0.024256,0.044624,0.053494
13,0.108333,213,-0.000383,-0.004325,0.016043,0.020971,0.018671,-0.004982,-0.027978,0.021299,0.047252,0.051851
13,0.108333,214,-0.000711,-0.004325,0.017357,0.013744,0.020971,-0.002682,-0.029949,0.021628,0.042324,0.057108
13,0.108333,215,-0.001040,-0.007282,0.012429,0.021628,0.025570,-0.003011,-0.028307,0.021956,0.035754,0.059407
13,0.108333,216,-0.000383,-0.008924,0.014072,0.021956,0.022613,-0.003668,-0.028635,0.023599,0.029184,0.050866
13,0.108333,217,-0.010567,-0.007610,0.013415,0.020642,0.016372,0.005531,-0.035205,0.022285,0.029512,0.049880
13,0.108333,218,0.004217,-0.004325,0.006516,0.022942,0.009144,0.002574,-0.029292,0.023599,0.036740,0.034440
13,0.108333,219,0.000274,-0.008267,0.016372,0.027870,0.005859,0.004217,-0.030935,0.025570,0.031483,0.021956
13,0.108333,220,0.001588,-0.004982,0.015715,0.019657,0.005202,0.007173,-0.030606,0.025899,0.012101,0.043638
13,0.108333,221,0.002245,-0.006953,0.016043,0.021956,0.005531,-0.002025,-0.027321,0.023599,0.016043,0.025242
13,0.108333,222,-0.001697,-0.005310,0.016043,0.022942,0.007502,0.006845,-0.029292,0.032797,0.017686,0.033783
13,0.108333,223,-0.001368,-0.003996,0.020971,0.020314,0.010787,0.005859,-0.023379,0.028198,-0.011224,0.024256
14,0.116667,224,0.000274,-0.006624,0.015058,0.019985,0.010787,0.003231,-0.026664,0.026227,0.022942,0.030169
14,0.116667,225,-0.001368,-0.008267,0.017686,0.026227,-0.000711,0.004545,-0.026993,0.026556,0.011115,0.023599
14,0.116667,226,-0.000383,-0.010895,0.014729,0.021956,0.000931,0.002902,-0.021408,0.026556,0.015386,0.003888
14,0.116667,227,-0.003339,-0.004653,0.014729,0.022613,0.000603,0.008816,-0.029621,0.023599,-0.006953,0.008159
14,0.116667,228,-0.002682,-0.007282,0.011444,0.025570,0.000274,0.007173,-0.028307,0.024585,0.000603,-0.007282
14,0.116667,229,-0.002682,-0.005967,0.019985,0.018671,0.003888,0.002902,-0.027321,0.025242,0.002245,-0.000383
14,0.116667,230,-0.000383,-0.006624,0.017686,0.022942,0.007830,-0.002025,-0.027650,0.023270,-0.004325,-0.005967
14,0.116667,231,0.004217,-0.006624,0.019985,0.021956,0.007173,0.006188,-0.033563,0.025242,-0.003339,0.001588
14,0.116667,232,-0.000383,-0.003996,0.021299,0.022942,0.003560,0.005531,-0.029621,0.026556,0.009144,0.009144
14,0.116667,233,-0.001697,-0.004653,0.013415,0.024256,0.003231,0.005531,-0.030278,0.020971,-0.001368,0.036411
14,0.116667,234,0.000603,-0.008596,0.021299,0.025899,0.003888,0.002574,-0.030935,0.023599,0.016043,0.009801
14,0.116667,235,-0.000383,-0.007939,0.017686,0.027213,0.002902,0.003560,-0.030606,0.023599,0.017357,0.018014
14,0.116667,236,-0.002682,-0.011552,0.019985,0.024256,0.001260,-0.001040,-0.030606,0.021299,0.022942,0.018343
14,0.116667,237,0.000603,-0.010567,0.018671,0.023599,-0.002682,-0.003339,-0.032249,0.019657,0.050866,0.029512
14,0.116667,238,-0.002682,-0.009581,0.019000,0.021299,-0.000383,-0.002354,-0.028964,0.019000,0.002574,0.063021
14,0.116667,239,0.000603,-0.010238,0.018343,0.020971,-0.001368,-0.002354,-0.029292,0.021299,0.020642,0.010458
15,0.125000,240,-0.003996,-0.009910,0.017686,0.019985,-0.004653,0.007173,-0.029292,0.022942,0.021956,0.045281
15,0.125000,241,-0.003996,-0.009581,0.021299,0.019328,-0.001697,-0.005639,-0.029292,0.021299,0.027213,0.049223
15,0.125000,242,-0.000383,-0.006953,0.017686,0.023270,-0.004982,-0.003668,-0.028964,0.025242,0.061050,0.055465
15,0.125000,243,0.001260,-0.008924,0.019000,0.010130,-0.003668,-0.005310,-0.027978,0.025570,0.029841,0.065321
15,0.125000,244,0.002574,-0.006296,0.017357,0.019000,0.003888,-0.006953,-0.029621,0.026556,0.038711,0.053822
15,0.125000,245,0.003888,-0.006953,0.020971,0.023928,-0.002025,-0.001368,-0.028964,0.023928,0.027870,0.057765
15,0.125000,246,0.006516,-0.008596,0.020642,0.023270,-0.001697,-0.004325,-0.026993,0.012101,0.032469,0.054480
15,0.125000,247,-0.000383,-0.009910,0.028855,0.022942,0.001260,-0.003996,-0.030278,0.023270,0.020971,0.071562
15,0.125000,248,0.002245,-0.010238,0.017029,0.024256,0.004874,-0.001697,-0.028964,0.021956,0.033783,0.068277
15,0.125000,249,-0.000054,-0.009910,0.019328,0.025242,0.009473,-0.013523,-0.028635,0.021628,0.020971,0.036740
15,0.125000,250,-0.000711,-0.008596,0.018014,0.023928,0.015715,0.002245,-0.039148,0.021956,0.024913,0.044624
15,0.125000,251,-0.004325,0.000931,0.018343,0.023599,0.011115,-0.005967,-0.026007,0.025570,0.008487,0.042653
15,0.125000,252,-0.004325,-0.008924,0.019000,0.023599,0.010130,-0.004653,-0.030278,0.021299,0.057108,0.026556
15,0.125000,253,-0.001368,-0.009910,0.019985,0.026884,0.001917,-0.005639,-0.031263,0.023599,0.022613,0.043967
15,0.125000,254,-0.000054,-0.008267,0.017686,0.025242,0.015058,-0.013195,-0.029292,0.023270,0.018343,0.044624
15,0.125000,255,0.000274,-0.008596,0.017029,0.021956,0.006845,-0.003668,-0.027650,0.027213,0.002245,0.015058
16,0.133333,256,-0.003011,-0.008924,0.020314,0.020314,0.008487,-0.004325,-0.031592,0.024256,-0.002354,0.021956
16,0.133333,257,-0.000383,-0.012538,0.020314,0.014072,0.007173,-0.003668,-0.030935,0.024256,0.011115,0.016043
16,0.133333,258,-0.001368,-0.009910,0.018671,0.021628,-0.004325,-0.003339,-0.029292,0.023270,0.004874,0.012429
16,0.133333,259,-0.002025,-0.006953,0.018014,0.019328,0.010130,-0.006296,-0.029292,0.023599,0.004217,-0.002025
16,0.133333,260,-0.010238,-0.008267,0.018014,0.019657,0.016700,-0.002682,-0.035205,0.024585,0.015715,0.005859
16,0.133333,261,-0.001368,-0.008924,0.017029,0.020971,0.014729,-0.002025,-0.032249,0.023599,0.012429,0.012758
16,0.133333,262,-0.001040,-0.006296,0.019657,0.009801,0.010458,-0.001040,-0.029621,0.024256,0.010458,0.008816
16,0.133333,263,-0.000383,-0.006624,0.020642,0.024913,0.003560,-0.000383,-0.031263,0.022613,0.009801,0.007830
16,0.133333,264,0.000274,-0.007610,0.019000,0.019328,0.003560,-0.003011,-0.026993,0.019657,0.011772,0.008487
16,0.133333,265,0.000274,-0.009910,0.018343,0.021956,0.003231,-0.000711,-0.030935,0.021628,0.016043,0.009473
16,0.133333,266,-0.001040,-0.008596,0.013744,0.021956,-0.001368,-0.000711,-0.031263,0.022613,0.027870,-0.001040
16,0.133333,267,-0.002354,-0.007939,0.022942,0.023928,-0.002025,-0.002025,-0.030278,0.022942,0.019657,-0.008924
16,0.133333,268,-0.002682,-0.007282,0.019000,0.022613,0.004545,-0.000054,-0.029621,0.021299,0.021299,0.017686
16,0.133333,269,-0.000383,-0.008924,0.021628,0.021628,0.000603,-0.002354,-0.024364,0.020642,0.011444,0.027541
16,0.133333,270,0.001588,-0.015494,0.020314,0.021956,0.004217,-0.004325,-0.029621,0.021628,0.021956,0.035097
16,0.133333,271,0.001588,-0.004653,0.017029,0.022285,0.005202,-0.005310,-0.027650,0.025899,0.024913,0.026884
17,0.141667,272,0.000931,-0.008596,0.018014,0.021628,0.009144,-0.004982,-0.027650,0.022285,0.028198,0.043967
17,0.141667,273,-0.003011,-0.006624,0.021956,0.024913,-0.001040,-0.002025,-0.028964,0.023270,0.031483,0.041010
17,0.141667,274,0.003560,-0.009581,0.022613,0.022285,0.006845,-0.001040,-0.030935,0.024256,0.028855,0.045281
17,0.141667,275,0.005859,-0.011881,0.022285,0.021299,0.005859,-0.000383,-0.027321,0.017029,0.024585,0.033783
17,0.141667,276,-0.001368,-0.006624,0.024256,0.025570,0.006516,-0.000054,-0.028635,0.024256,0.037397,0.023928
17,0.141667,277,-0.001040,-0.006624,0.020314,0.017357,0.009144,-0.005967,-0.026993,0.022613,0.032797,0.055137
17,0.141667,278,-0.001368,-0.007282,0.018671,0.022285,0.011444,-0.010895,-0.029292,0.025570,0.028855,0.045938
17,0.141667,279,-0.001368,-0.007610,0.019985,0.019985,0.012429,-0.007282,-0.032906,0.022285,0.031155,0.041667
17,0.141667,280,-0.000711,-0.003996,0.021299,0.020642,0.009801,-0.005967,-0.026664,0.023928,0.026556,0.036411
17,0.141667,281,-0.004325,-0.008596,0.016372,0.023928,0.007173,-0.002682,-0.029292,0.022285,0.033783,0.012758
17,0.141667,282,-0.003011,-0.005310,0.015715,0.021299,0.008487,-0.003668,-0.027978,0.021628,0.032140,0.031155
17,0.141667,283,-0.003668,-0.005967,0.019328,0.021956,0.008159,0.002902,-0.026664,0.024256,0.024585,0.036083
17,0.141667,284,-0.007282,-0.006953,0.020642,0.023928,0.009801,-0.002682,-0.026335,0.024585,0.025570,0.027213
17,0.141667,285,0.001260,-0.012866,0.019657,0.025899,0.006845,-0.003339,-0.028635,0.024256,0.045281,0.028855
17,0.141667,286,0.000603,-0.009910,0.019328,0.025242,0.008159,-0.006296,-0.028964,0.022285,0.011115,0.027870
17,0.141667,287,0.004217,-0.009253,0.019985,0.021956,0.017029,-0.005639,-0.029292,0.024256,0.018671,0.002902
18,0.150000,288,0.000931,-0.004653,0.018014,0.026556,0.012429,-0.001697,-0.031592,0.025242,0.014072,0.019985
18,0.150000,289,-0.002682,-0.004325,0.017357,0.024585,0.013744,-0.006624,-0.032906,0.029841,0.015386,0.023599
18,0.150000,290,0.004545,-0.012866,0.018014,0.023928,0.013086,-0.007610,-0.028964,0.024256,0.015715,0.004217
18,0.150000,291,0.002574,-0.007282,0.020642,0.024256,0.013415,-0.009581,-0.028635,0.027541,0.012429,0.011772
18,0.150000,292,0.002574,-0.008924,0.018343,0.022613,0.019985,-0.008267,-0.027321,0.028855,0.002902,0.003560
18,0.150000,293,0.001588,-0.010238,0.019000,0.023928,0.010787,-0.010567,-0.020422,0.028527,0.004545,0.001588
18,0.150000,294,-0.005639,-0.006953,0.019657,0.023270,0.012429,-0.007282,-0.029621,0.035426,0.010130,0.014401
18,0.150000,295,0.001917,-0.005967,0.015058,0.022942,0.012758,-0.005967,-0.027978,0.025242,0.011772,0.023599
18,0.150000,296,0.000274,-0.009253,0.018343,0.028198,0.009801,-0.000383,-0.031592,0.027213,0.010130,0.005202
18,0.150000,297,-0.001368,-0.007939,0.017357,0.025570,0.008816,0.004874,-0.031263,0.026884,0.020314,0.020971
18,0.150000,298,-0.000054,-0.006296,0.016043,0.022613,0.011444,0.002574,-0.031920,0.023599,0.026227,0.017029
18,0.150000,299,-0.001697,-0.001040,0.015386,0.024256,0.016372,0.004874,-0.028635,0.028855,0.039368,0.032140
18,0.150000,300,0.000931,-0.009253,0.019000,0.025242,0.017686,0.006516,-0.030606,0.024585,0.006188,0.046924
18,0.150000,301,-0.000711,-0.007282,0.014729,0.023270,0.023928,0.007502,-0.029949,0.024585,0.023270,0.027870
18,0.150000,302,0.000931,-0.009910,0.016372,0.020971,0.011115,0.013086,-0.030606,0.025242,0.019985,0.041339
18,0.150000,303,-0.000711,-0.009910,0.019985,0.020642,0.010130,0.003888,-0.029292,0.026227,0.033783,0.047909
19,0.158333,304,-0.003668,-0.000054,0.018343,0.022285,0.008816,0.005202,-0.026007,0.028855,0.043638,0.049552
19,0.158333,305,-0.001697,-0.010238,0.014729,0.030498,0.009144,0.003231,-0.027978,0.025242,0.029512,0.046595
19,0.158333,306,-0.002025,-0.007610,0.016372,0.024913,0.005859,0.006188,-0.028307,0.025899,0.033454,0.058093
19,0.158333,307,-0.000383,-0.007939,0.016700,0.023928,0.006516,0.004545,-0.029292,0.024585,0.032797,0.059079
19,0.158333,308,0.003888,-0.009910,0.020642,0.024256,0.006188,0.002245,-0.026335,0.014072,0.028527,0.063349
19,0.158333,309,-0.002682,-0.010567,0.019657,0.025242,0.000931,0.003888,-0.024364,0.027541,0.030826,0.066963
19,0.158333,310,-0.002025,-0.012866,0.020642,0.020314,0.003231,0.001588,-0.027321,0.022285,0.039368,0.086017
19,0.158333,311,-0.002025,-0.010238,0.017686,0.026227,-0.008596,0.001588,-0.030278,0.024585,0.032797,0.064335
19,0.158333,312,-0.001697,-0.009910,0.018671,0.022942,0.004545,0.004874,-0.028635,0.020971,0.025242,0.061378
19,0.158333,313,0.005859,-0.008924,0.016372,0.024256,0.000274,0.003560,-0.025021,0.023270,0.001588,0.036740
19,0.158333,314,-0.000054,-0.005310,0.005202,0.023270,-0.000711,0.002245,-0.031263,0.023599,0.012429,0.030498
19,0.158333,315,-0.000054,-0.009910,0.017357,0.010130,-0.002025,0.002902,-0.028964,0.022613,0.002245,0.049552
19,0.158333,316,-0.000711,-0.008596,0.015386,0.023270,-0.003339,0.002902,-0.028964,0.022942,0.000931,0.026884
19,0.158333,317,-0.002025,-0.006953,0.016700,0.024256,-0.003011,0.000603,-0.029292,0.023599,0.007173,0.014072
19,0.158333,318,-0.003668,-0.009253,0.017686,0.025242,-0.003668,0.007502,-0.028307,0.023928,0.011115,0.027541
19,0.158333,319,-0.003339,-0.006624,0.008487,0.026556,-0.002682,0.001260,-0.028307,0.020642,0.036411,0.013086
20,0.166667,320,-0.002682,-0.006624,0.015715,0.026227,-0.009581,0.002574,-0.027978,0.023270,0.013415,0.026556
20,0.166667,321,-0.000383,-0.006624,0.017029,0.021299,-0.001697,0.004217,-0.028964,0.024913,0.006845,0.024585
20,0.166667,322,0.003888,-0.006953,0.019328,0.022285,0.006188,0.004874,-0.025021,0.023599,0.013086,0.009473
20,0.166667,323,0.003231,-0.003339,0.019000,0.023599,0.007502,0.008159,-0.024693,0.022285,-0.003996,0.003231
20,0.166667,324,-0.000054,-0.005310,0.013744,0.025570,0.008159,0.007173,-0.024693,0.024256,-0.003996,0.006188
20,0.166667,325,-0.000054,-0.009910,0.020314,0.027213,0.017029,0.005859,-0.026007,0.026556,-0.000383,-0.001697
20,0.166667,326,-0.000383,-0.009581,0.021299,0.022942,0.013086,0.002245,-0.025350,0.024256,-0.008924,-0.007610
20,0.166667,327,-0.003668,-0.008924,0.021628,0.025899,0.013086,0.001588,-0.025678,0.029841,-0.018451,-0.010567
20,0.166667,328,0.003231,-0.004325,0.020642,0.025242,0.012429,0.002574,-0.025021,0.025899,-0.012209,-0.003339
20,0.166667,329,-0.001368,-0.009910,0.018343,0.026556,0.010130,0.005531,-0.026664,0.021956,0.006845,-0.014509
20,0.166667,330,0.002574,-0.009253,0.024585,0.027213,0.011115,0.007173,-0.026335,0.023599,0.006516,-0.000711
20,0.166667,331,0.002245,-0.006296,0.021956,0.024913,0.010787,0.005859,-0.025678,0.020971,0.006188,0.007830
20,0.166667,332,0.005531,-0.006296,0.021628,0.025570,0.016700,0.009473,-0.026993,0.020642,0.003560,0.014729
20,0.166667,333,0.000603,-0.014180,0.021299,0.023599,0.021299,0.010458,-0.029621,0.018014,0.039696,0.014729
20,0.166667,334,-0.000383,-0.007939,0.019985,0.026227,0.023599,0.012429,-0.029292,0.021956,0.025899,-0.000383
20,0.166667,335,0.001917,-0.007610,0.020642,0.026227,0.031483,0.005531,-0.028307,0.020642,0.017029,0.029512
21,0.175000,336,-0.000054,-0.007939,0.021628,0.026556,0.031155,0.004545,-0.027978,0.021299,0.025242,0.032797
21,0.175000,337,0.003560,-0.005310,0.021299,0.024256,0.026556,0.014401,-0.025021,0.018671,0.016043,0.024585
21,0.175000,338,-0.001368,-0.011224,0.022942,0.022285,0.023270,0.011772,-0.025350,0.023599,-0.003996,0.036083
21,0.175000,339,-0.002354,-0.005639,0.022613,0.018014,0.018343,0.009144,-0.026664,0.023928,0.038054,0.042653
21,0.175000,340,-0.003011,-0.007282,0.021628,0.026556,0.009473,0.005202,-0.026664,0.023270,0.031483,0.045281
21,0.175000,341,0.001917,-0.009581,0.020314,0.023270,0.017029,0.003560,-0.028635,0.024585,0.038054,0.043638
21,0.175000,342,-0.000711,-0.008924,0.023599,0.023599,0.014729,-0.003339,-0.029292,0.026884,0.032140,0.051851
21,0.175000,343,-0.000711,-0.008267,0.019985,0.022942,0.012429,-0.005310,-0.027321,0.025570,0.026556,0.041339
21,0.175000,344,-0.001368,-0.005967,0.022285,0.018671,0.009473,-0.004982,-0.027321,0.026556,0.025570,0.029841
21,0.175000,345,-0.002682,-0.007610,0.019657,0.023928,0.005531,-0.001040,-0.026664,0.026556,0.028855,0.044624
21,0.175000,346,0.001917,-0.009910,0.022285,0.021956,0.005859,-0.008924,-0.023050,0.023928,0.024256,0.030169
21,0.175000,347,0.001917,-0.013852,0.020642,0.021299,0.001588,-0.008924,-0.030278,0.022613,0.034112,0.029184
21,0.175000,348,0.001917,-0.007282,0.017029,0.020971,0.001588,-0.008267,-0.028964,0.023270,0.006516,0.054151
21,0.175000,349,-0.000383,-0.009581,0.021628,0.020971,0.004874,-0.006296,-0.026993,0.024256,0.015715,0.007830
21,0.175000,350,-0.000054,-0.008596,0.020642,0.018014,-0.002682,-0.000383,-0.029292,0.025570,0.008159,0.016043
21,0.175000,351,0.003560,-0.011881,0.020314,0.021299,0.001260,-0.001040,-0.026664,0.016043,0.009473,0.008159
22,0.183333,352,-0.008596,-0.006953,0.019000,0.021628,0.002574,-0.000383,-0.030935,0.029841,0.028855,0.005202
22,0.183333,353,-0.005310,-0.017466,0.019657,0.012101,0.007502,-0.001368,-0.027978,0.028527,0.014401,0.008816
22,0.183333,354,-0.004982,-0.011552,0.018014,0.016372,0.011115,-0.003339,-0.026993,0.030498,0.011444,0.001917
22,0.183333,355,-0.003339,-0.005967,0.020314,0.017686,0.000603,-0.005639,-0.025350,0.030498,0.010458,-0.001697
22,0.183333,356,0.001917,-0.009253,0.020971,0.015058,-0.002682,-0.006296,-0.025678,0.027541,0.012758,0.006845
22,0.183333,357,-0.002025,-0.007939,0.017686,0.016043,-0.003996,-0.003339,-0.026007,0.036083,0.026227,0.010130
22,0.183333,358,-0.003011,-0.008596,0.017357,0.024913,-0.002682,-0.002682,-0.026007,0.034769,0.008159,-0.005639
22,0.183333,359,-0.002682,-0.010895,0.018343,0.013086,0.004874,-0.004982,-0.027321,0.035097,0.019985,0.011115
22,0.183333,360,-0.003668,-0.007939,0.019000,0.017357,-0.000383,-0.005310,-0.034548,0.032797,0.022613,0.008487
22,0.183333,361,0.003560,-0.009253,0.017357,0.015058,0.000603,-0.004325,-0.025678,0.024585,0.003888,0.014072
22,0.183333,362,-0.006624,-0.012209,0.018014,0.015715,-0.000054,-0.006624,-0.030935,0.027870,0.034440,-0.000383
22,0.183333,363,-0.003996,-0.013852,0.014401,0.018014,-0.000383,-0.007610,-0.029292,0.029841,0.027541,0.029512
22,0.183333,364,-0.003668,-0.011881,0.015715,0.014729,-0.002025,-0.005310,-0.031263,0.030826,0.019328,0.020314
22,0.183333,365,-0.007939,-0.007939,0.013744,0.016700,-0.003339,-0.007282,-0.039805,0.031812,0.028855,0.026884
22,0.183333,366,-0.007939,0.000931,0.013086,0.015715,-0.003339,-0.011881,-0.029949,0.031155,0.036083,0.037725
22,0.183333,367,-0.006953,-0.008924,0.018014,0.018671,-0.006953,-0.010895,-0.035534,0.027541,0.057436,0.025242
23,0.191667,368,-0.003996,-0.004325,0.010458,0.018671,-0.010238,-0.015166,-0.036191,0.031483,0.026884,0.049552
23,0.191667,369,-0.005310,-0.004325,0.009144,0.016372,-0.013195,-0.017794,-0.034877,0.028855,0.057108,0.042981
23,0.191667,370,-0.004982,-0.006624,0.009801,0.017029,-0.023379,-0.019108,-0.036191,0.029512,0.040025,0.055465
23,0.191667,371,-0.008267,0.000274,0.008159,0.017686,-0.009581,-0.024364,-0.034220,0.033783,0.028198,0.067620
23,0.191667,372,-0.005310,-0.007610,0.005202,0.023599,-0.010895,-0.025350,-0.033891,0.028527,0.054480,0.074519
23,0.191667,373,-0.006953,-0.010238,0.008816,0.022285,-0.006624,-0.026664,-0.034220,0.029841,0.046267,0.067949
23,0.191667,374,-0.008924,-0.013523,0.008487,0.018014,-0.012538,-0.025678,-0.030606,0.029841,0.040025,0.067620
23,0.191667,375,-0.003011,-0.012538,0.007830,0.020971,-0.011552,-0.027650,-0.030278,0.034769,0.026556,0.058093
23,0.191667,376,-0.007282,-0.006624,-0.003011,0.019657,-0.009581,-0.028307,-0.032249,0.030498,0.027541,0.055794
23,0.191667,377,-0.006296,-0.007282,0.013744,0.006188,-0.008596,-0.028307,-0.034548,0.032140,0.029841,0.055465
23,0.191667,378,-0.007939,-0.007282,0.006845,0.016372,-0.006953,-0.026007,-0.038491,0.030826,0.031155,0.048895
23,0.191667,379,-0.008596,-0.009910,0.007830,0.015386,-0.009910,-0.024364,-0.033891,0.028855,0.023270,0.043638
23,0.191667,380,-0.009253,-0.012866,0.007173,0.017357,-0.010567,-0.024036,-0.038491,0.027541,0.046595,0.044624
23,0.191667,381,-0.009581,-0.008924,-0.004325,0.018343,-0.012538,-0.022393,-0.039476,0.026556,0.050537,0.043967
23,0.191667,382,-0.009581,-0.009253,0.007502,0.014729,-0.011881,-0.023707,-0.040790,0.026556,0.034769,0.016700
23,0.191667,383,-0.009910,-0.007610,0.009144,0.015386,-0.017137,-0.023707,-0.037834,0.022613,0.027870,0.044953
24,0.200000,384,-0.007939,-0.010567,0.007173,0.013415,-0.011881,-0.029949,-0.042104,0.022285,0.025899,0.030498
24,0.200000,385,-0.003996,-0.010895,0.005531,0.015715,-0.016480,-0.022722,-0.040462,0.018343,0.001588,0.015058
24,0.200000,386,-0.009253,-0.012866,0.009144,0.016700,-0.017137,-0.029621,-0.038162,0.023270,-0.011881,0.017357
24,0.200000,387,-0.005639,-0.012209,0.005202,0.019657,-0.015823,-0.038162,-0.036191,0.022613,0.010458,0.019328
24,0.200000,388,-0.007610,-0.011224,0.010458,0.023270,-0.025678,-0.044732,-0.037834,0.023270,0.006188,0.010130
24,0.200000,389,-0.006296,-0.013852,0.013086,0.021299,-0.017137,-0.050646,-0.043747,0.024256,0.003231,0.017029
24,0.200000,390,-0.013523,-0.012209,0.008816,0.021956,-0.016151,-0.055902,-0.036191,0.023270,-0.008596,0.000931
24,0.200000,391,-0.005639,-0.012538,0.006845,0.020642,-0.015166,-0.057545,-0.035862,0.019985,0.001260,0.003231
24,0.200000,392,-0.003011,-0.011552,0.017029,0.017357,-0.013852,-0.053931,-0.033891,0.018014,0.005531,0.014401
24,0.200000,393,-0.001040,-0.013852,0.018671,0.024913,-0.009253,-0.056230,-0.034220,0.012758,-0.007282,0.003888
24,0.200000,394,-0.002354,-0.012209,0.018014,0.029184,-0.009910,-0.048675,-0.037834,0.010787,0.006188,0.000274
24,0.200000,395,-0.000054,-0.013852,0.017686,0.027213,-0.005967,-0.042433,-0.040133,0.007502,-0.001697,0.013744
24,0.200000,396,0.001588,-0.011881,0.011444,0.033783,0.000274,-0.043747,-0.039476,0.006188,0.006188,0.000274
24,0.200000,397,0.004217,-0.013523,0.022942,0.033783,0.003231,-0.037177,-0.034877,0.006516,0.010458,0.014401
24,0.200000,398,0.004217,-0.010567,0.022613,0.034112,0.017029,-0.027978,-0.034877,0.009473,0.011772,0.026556
24,0.200000,399,0.008487,-0.007610,0.023599,0.034769,0.020971,-0.018451,-0.035862,0.010130,0.005202,0.028527
25,0.208333,400,0.010787,-0.013523,0.023599,0.036083,0.025242,-0.014837,-0.037834,-0.000711,0.026227,0.022613
25,0.208333,401,0.011444,-0.004653,0.028198,0.035754,0.028855,-0.007282,-0.034220,0.000931,0.007830,0.026556
25,0.208333,402,0.017357,-0.002682,0.032140,0.036411,0.030826,-0.002682,-0.031263,-0.001040,0.007173,0.021628
25,0.208333,403,0.021628,0.001588,0.033126,0.034440,0.034440,0.001588,-0.032577,-0.000054,0.010458,0.038054
25,0.208333,404,0.026556,0.003560,0.035426,0.032469,0.034440,0.008487,-0.031920,-0.006953,0.007830,0.033126
25,0.208333,405,0.021299,0.013086,0.034440,0.035097,0.032140,0.012758,-0.036519,-0.007282,0.044624,0.028198
25,0.208333,406,0.023599,0.013744,0.030826,0.043967,0.030498,0.016372,-0.034220,-0.009910,0.004545,0.035754
25,0.208333,407,0.022285,0.013744,0.035426,0.034440,0.039368,0.021299,-0.036191,-0.014180,0.007830,0.016043
25,0.208333,408,0.024256,0.008816,0.036083,0.036740,0.031812,0.022613,-0.030606,-0.017466,0.009801,0.017029
25,0.208333,409,0.021299,0.006845,0.037397,0.035754,0.033783,0.030169,-0.042433,-0.018780,0.018343,0.029184
25,0.208333,410,0.025242,0.007830,0.041996,0.035754,0.033126,0.034440,-0.039805,-0.025021,-0.009253,0.049223
25,0.208333,411,0.026227,0.012429,0.037397,0.042981,0.029512,0.040682,-0.042104,-0.027321,-0.002354,-0.005310
25,0.208333,412,0.027541,0.012429,0.041667,0.034769,0.024913,0.052837,-0.041776,-0.030935,-0.000054,0.013415
25,0.208333,413,0.027870,0.011772,0.040025,0.041010,0.025899,0.045610,-0.039476,-0.030278,0.008487,-0.001368
25,0.208333,414,0.023270,0.010787,0.040353,0.041667,0.029512,0.049552,-0.043090,-0.027978,0.022285,-0.001368
25,0.208333,415,0.019328,-0.001368,0.050537,0.041010,0.031155,0.049880,-0.041776,-0.023379,-0.012209,-0.002682
26,0.216667,416,0.014401,-0.003339,0.040353,0.037397,0.040025,0.050537,-0.041119,-0.025678,-0.012538,-0.015166
26,0.216667,417,0.011772,-0.008267,0.041667,0.041010,0.024913,0.057436,-0.040133,-0.024364,-0.018451,-0.007939
26,0.216667,418,0.014072,-0.011224,0.044953,0.040682,0.027213,0.045938,-0.037834,-0.024693,-0.008924,-0.014180
26,0.216667,419,0.012101,-0.002682,0.042653,0.041339,0.024585,0.049223,-0.031592,-0.011881,-0.014837,-0.019437
26,0.216667,420,0.015386,-0.008924,0.043310,0.040025,0.026556,0.049880,-0.032249,-0.012866,-0.004325,-0.014180
26,0.216667,421,0.014729,-0.005639,0.041339,0.041339,0.028198,0.048895,-0.028964,-0.013195,-0.003339,-0.028964
26,0.216667,422,0.013086,0.000603,0.039368,0.041339,0.028855,0.058750,-0.028635,-0.012209,-0.007939,-0.024364
26,0.216667,423,0.019657,-0.001368,0.038382,0.045938,0.031483,0.052837,-0.023050,-0.010895,-0.026007,-0.029949
26,0.216667,424,0.012101,-0.003011,0.029184,0.044624,0.033783,0.049552,-0.023707,-0.007282,-0.024693,-0.024364
26,0.216667,425,0.009801,-0.006296,0.042324,0.040025,0.039696,0.046267,-0.021736,0.000603,-0.010895,-0.016151
26,0.216667,426,0.009801,-0.010567,0.040025,0.043310,0.040353,0.048238,-0.019437,0.006516,0.001588,-0.013195
26,0.216667,427,0.012429,-0.005967,0.040682,0.036411,0.048238,0.049880,-0.014509,0.009801,-0.005639,-0.007282
26,0.216667,428,0.017357,-0.001040,0.037068,0.037068,0.052837,0.052180,-0.018451,0.019985,-0.009581,-0.014180
26,0.216667,429,0.007830,-0.001040,0.029512,0.035097,0.049880,0.052837,-0.018451,0.016700,0.023270,-0.007282
26,0.216667,430,0.008159,-0.005310,0.034440,0.032140,0.049552,0.051851,-0.018123,0.020971,0.007173,0.009144
26,0.216667,431,0.006845,-0.002682,0.032140,0.031155,0.046267,0.054480,-0.020094,0.028527,0.011444,0.021299
27,0.225000,432,0.004874,-0.002025,0.030498,0.030498,0.041996,0.051851,-0.012209,0.029184,0.009144,0.019328
27,0.225000,433,0.006516,-0.011881,0.029184,0.026884,0.037725,0.049880,-0.017466,0.029841,0.021299,0.025570
27,0.225000,434,0.005531,-0.000054,0.020314,0.027870,0.032140,0.051851,-0.015166,0.038054,0.023599,0.034769
27,0.225000,435,0.000274,-0.006624,0.022942,0.025899,0.033454,0.048238,-0.015494,0.041667,0.026227,0.056779
27,0.225000,436,-0.002354,-0.006296,0.022285,0.020971,0.028198,0.051194,-0.017137,0.049880,0.031155,0.052180
27,0.225000,437,-0.008596,-0.009253,0.021956,0.020314,0.026227,0.044953,-0.017466,0.054480,0.050537,0.053165
27,0.225000,438,0.002902,-0.014180,0.022285,0.017029,0.026884,0.042324,-0.012866,0.050537,0.037397,0.051523
27,0.225000,439,-0.005639,-0.005967,0.022942,0.019328,0.027213,0.039368,-0.017137,0.056779,0.042653,0.051523
27,0.225000,440,-0.006624,-0.010238,0.016372,0.018014,0.033454,0.037725,-0.015823,0.056122,0.028198,0.062364
27,0.225000,441,-0.007282,-0.009253,0.014401,0.012429,0.029184,0.033454,-0.011224,0.055794,0.026227,0.048238
27,0.225000,442,-0.007282,-0.005967,0.013086,0.010458,0.026556,0.035426,-0.020422,0.059079,0.029184,0.060721
27,0.225000,443,-0.005310,-0.006296,0.015715,0.008159,0.021299,0.028527,-0.011881,0.060064,0.007830,0.048895
27,0.225000,444,-0.007282,-0.009253,0.012758,0.014401,0.011772,0.026227,-0.013195,0.062035,0.045938,0.023599
27,0.225000,445,-0.011552,-0.009581,0.002245,0.010787,0.005859,0.024913,-0.014509,0.064335,0.037068,0.052837
27,0.225000,446,-0.013852,-0.012209,0.003560,0.012758,-0.002682,0.017357,-0.013523,0.063678,0.023270,0.047909
27,0.225000,447,-0.014837,-0.010895,0.000603,0.010130,-0.006953,0.014401,-0.013195,0.066635,0.030826,0.047909
28,0.233333,448,-0.008596,-0.017137,0.004545,0.007830,-0.008596,0.011444,-0.013523,0.064006,0.031812,0.039039
28,0.233333,449,-0.007939,-0.007610,0.008816,0.003560,-0.010895,0.010130,-0.013523,0.065321,0.025899,0.034440
28,0.233333,450,-0.006953,-0.007610,0.006845,0.009801,-0.018123,0.004874,-0.013195,0.063349,0.022285,0.040682
28,0.233333,451,-0.010238,-0.008267,0.005859,0.006845,-0.012538,0.000274,-0.013195,0.062035,0.020971,0.027541
28,0.233333,452,-0.007282,-0.005639,0.005202,0.009144,-0.012866,0.000603,-0.014509,0.062035,0.016043,0.016700
28,0.233333,453,-0.013523,-0.009910,0.007502,0.009473,-0.010895,-0.004325,-0.017466,0.058093,0.000603,0.020314
28,0.233333,454,-0.014837,-0.011224,0.009801,0.002902,-0.010238,-0.005967,-0.016151,0.059736,0.016372,0.022285
28,0.233333,455,-0.014509,-0.012209,0.009473,0.010458,-0.008596,-0.008596,-0.011881,0.056779,0.016372,0.007830
28,0.233333,456,-0.011224,-0.014509,0.009144,0.008816,-0.009581,-0.010567,-0.012866,0.056779,0.018014,0.019985
28,0.233333,457,-0.019108,-0.012866,0.005531,0.009144,-0.011224,-0.015166,-0.021079,0.064335,0.027870,0.036411
28,0.233333,458,-0.012209,-0.014509,0.006845,0.010787,-0.006624,-0.021079,-0.016480,0.054151,0.019985,0.049552
28,0.233333,459,-0.015166,-0.015823,0.005859,0.015715,-0.006624,-0.020094,-0.017466,0.055465,0.026227,0.021628
28,0.233333,460,-0.012538,-0.017466,0.006845,0.008159,-0.005310,-0.029292,-0.015494,0.051851,0.028855,0.035426
28,0.233333,461,-0.015494,-0.016480,0.007173,0.011772,-0.005967,-0.026993,-0.009253,0.051194,0.035754,0.035754
28,0.233333,462,-0.019437,-0.018451,0.009144,0.009801,-0.003339,-0.027321,-0.019108,0.050866,0.031483,0.046267
28,0.233333,463,-0.016151,-0.021408,0.010787,0.010787,-0.000054,-0.028964,-0.018451,0.048238,0.017357,0.087660
29,0.241667,464,-0.019765,-0.026335,0.012758,0.009473,0.008816,-0.028635,-0.019108,0.047252,0.041010,0.038054
29,0.241667,465,-0.023379,-0.031263,0.014729,0.008816,-0.001040,-0.022065,-0.023050,0.045610,0.037725,0.052837
29,0.241667,466,-0.026335,-0.032577,0.015715,0.007830,0.003231,-0.031263,-0.024036,0.041996,0.050866,0.054151
29,0.241667,467,-0.022722,-0.027650,0.010458,0.011444,0.002245,-0.028635,-0.026664,0.042324,0.080104,0.058422
29,0.241667,468,-0.021408,-0.030935,0.009473,0.014401,0.002902,-0.027650,-0.025678,0.040682,0.039696,0.044296
29,0.241667,469,-0.016808,-0.027321,0.007830,0.011115,0.001588,-0.029949,-0.026993,0.039368,0.052180,0.064992
29,0.241667,470,-0.010895,-0.021736,0.010130,0.018343,-0.003011,-0.027650,-0.036848,0.038711,0.043638,0.065978
29,0.241667,471,-0.000711,-0.017466,0.013415,0.016372,-0.006296,-0.024036,-0.023050,0.035426,0.016372,0.043310
29,0.241667,472,-0.006296,-0.015166,0.012101,0.016043,-0.007610,-0.031592,-0.026664,0.033783,0.025242,0.037068
29,0.241667,473,-0.007610,-0.013523,0.010130,0.017357,-0.010567,-0.030935,-0.029621,0.042324,0.031812,0.046595
29,0.241667,474,-0.006953,-0.016808,0.004874,0.018671,-0.013195,-0.030606,-0.028307,0.034112,0.029841,0.043310
29,0.241667,475,-0.008267,-0.017137,0.011115,0.019657,-0.013195,-0.028964,-0.033891,0.032469,0.041339,0.039696
29,0.241667,476,-0.004653,-0.013195,0.013086,0.020314,-0.013195,-0.032577,-0.026993,0.022613,0.020971,0.036411
29,0.241667,477,-0.004982,-0.010567,0.022285,0.020642,-0.018123,-0.033234,-0.029292,0.032797,0.022942,0.012101
29,0.241667,478,-0.001368,-0.004653,0.014072,0.020314,-0.016480,-0.034220,-0.026993,0.026556,0.015715,0.054808
29,0.241667,479,0.000931,-0.005639,0.013415,0.023599,-0.011552,-0.042761,-0.029292,0.025899,0.010787,0.016043
30,0.250000,480,0.000603,-0.008596,0.013744,0.021628,-0.012209,-0.028635,-0.039805,0.027213,0.009801,0.017686
30,0.250000,481,-0.003339,-0.003339,0.012429,0.022285,-0.013195,-0.033563,-0.031263,0.027541,-0.001040,0.020314
30,0.250000,482,-0.004325,-0.006296,0.006516,0.023928,-0.015494,-0.029621,-0.034220,0.021299,0.033783,0.012101
30,0.250000,483,-0.003339,-0.005310,0.009801,0.021956,-0.017794,-0.027650,-0.033234,0.022613,0.015715,0.014072
30,0.250000,484,-0.002025,-0.002682,0.014072,0.025242,-0.008924,-0.035205,-0.034220,0.021628,0.012758,0.013744
30,0.250000,485,0.008487,0.000931,0.015058,0.023599,-0.014837,-0.024693,-0.029949,0.017357,-0.013523,0.005859
30,0.250000,486,-0.000054,-0.006624,0.016043,0.023928,-0.011881,-0.028635,-0.036519,0.022285,-0.018780,0.003560
30,0.250000,487,-0.003011,-0.000383,0.017357,0.014072,-0.010238,-0.026335,-0.034220,0.021299,-0.003011,0.013415
30,0.250000,488,-0.005639,-0.004982,0.016372,0.031812,-0.015494,-0.022065,-0.038491,0.019657,-0.000054,0.006516
30,0.250000,489,-0.004982,-0.005639,0.013744,0.028198,-0.004653,-0.018451,-0.033891,0.017686,0.006516,0.017686
30,0.250000,490,-0.010238,-0.000054,0.014072,0.028527,-0.007610,-0.022065,-0.040133,0.017686,0.030498,0.019328
30,0.250000,491,0.009801,0.004874,0.008159,0.028198,-0.006953,-0.019437,-0.034877,0.019657,0.028198,0.021299
30,0.250000,492,0.009473,0.005202,0.022942,0.024913,-0.003668,-0.016480,-0.038162,0.019328,0.021299,0.020314
30,0.250000,493,0.006516,0.001917,0.016700,0.029184,0.002574,-0.012538,-0.037505,0.018343,0.025570,0.029512
30,0.250000,494,0.004545,-0.002025,0.016700,0.025570,-0.001368,-0.015166,-0.036848,0.016043,0.027213,0.030826
30,0.250000,495,0.004545,-0.014180,0.015715,0.025570,0.001260,-0.008596,-0.034548,0.008487,0.020314,0.034769
31,0.258333,496,-0.003011,-0.010895,0.018014,0.024256,0.004217,-0.007610,-0.036191,0.011444,-0.000383,0.036740
31,0.258333,497,-0.000711,-0.010238,0.014072,0.033783,0.007830,-0.004982,-0.038491,0.013744,0.029184,0.037725
31,0.258333,498,0.000931,-0.009581,0.017686,0.024913,0.014401,-0.005967,-0.037505,0.014729,0.025899,0.045938
31,0.258333,499,0.001260,-0.010895,0.028527,0.024913,0.016372,-0.004325,-0.037834,0.015058,0.022285,0.044296
31,0.258333,500,0.009473,-0.007939,0.020314,0.024256,0.015715,-0.001697,-0.034220,0.008816,0.019000,0.037068
31,0.258333,501,0.005531,-0.011881,0.022942,0.025899,0.015058,-0.003668,-0.033891,0.015715,-0.001040,0.044953
31,0.258333,502,0.001260,-0.013195,0.023270,0.024913,0.013086,-0.002354,-0.036848,0.014401,0.031812,0.039039
31,0.258333,503,-0.000711,-0.016151,0.021956,0.027870,0.003888,-0.004653,-0.039148,0.013086,0.028855,0.060393
31,0.258333,504,-0.005310,-0.014509,0.017686,0.024585,0.010458,-0.003339,-0.046046,0.013744,0.021628,0.050209
31,0.258333,505,-0.002682,-0.009910,0.016372,0.025242,0.009144,-0.005310,-0.039805,0.020314,0.031155,0.045938
31,0.258333,506,-0.001040,-0.010567,0.021299,0.022285,0.012429,-0.006624,-0.037505,0.014401,0.008816,0.070248
31,0.258333,507,-0.003668,-0.008924,0.018671,0.019657,0.009801,-0.002682,-0.038162,0.014401,0.017357,0.027870
31,0.258333,508,-0.004653,-0.009581,0.018014,0.020971,0.009144,0.005202,-0.036191,0.014729,0.018671,0.039039
31,0.258333,509,0.002574,-0.008924,0.021299,0.021628,0.012429,-0.002354,-0.034220,0.013415,0.016700,0.019985
31,0.258333,510,0.002902,-0.012209,0.022613,0.020642,0.012429,-0.004982,-0.037177,0.009801,-0.000383,0.015715
31,0.258333,511,0.003888,-0.003011,0.016372,0.023599,0.013415,-0.005639,-0.033891,0.010130,0.005859,0.024913
32,0.266667,512,0.003560,-0.006296,0.023928,0.026227,0.012429,-0.006296,-0.030606,0.011115,-0.001040,0.003560
32,0.266667,513,-0.001697,-0.007282,0.021956,0.026556,0.013744,-0.002682,-0.033234,0.016372,0.005202,0.005531
32,0.266667,514,-0.004325,-0.005639,0.019000,0.024913,0.013415,-0.006953,-0.037834,0.023599,0.013744,0.016372
32,0.266667,515,0.002574,-0.012866,0.021299,0.026227,0.010130,-0.004982,-0.036848,0.012758,0.015058,0.005202
32,0.266667,516,0.000274,-0.009910,0.019985,0.032140,0.008816,-0.005310,-0.033891,0.013086,-0.004325,-0.007939
32,0.266667,517,0.002245,-0.010567,0.025242,0.022285,0.006845,-0.005967,-0.031920,0.011444,0.000274,-0.006953
32,0.266667,518,0.003231,-0.012538,0.023270,0.023928,0.003888,-0.003996,-0.027978,0.013086,0.002902,-0.009253
32,0.266667,519,-0.004325,-0.010567,0.023599,0.026227,0.004874,-0.004982,-0.033563,0.016372,0.017029,0.013744
32,0.266667,520,0.000931,-0.008924,0.025570,0.025899,0.005202,-0.004325,-0.030606,0.011115,0.007502,0.006845
32,0.266667,521,0.001588,-0.008596,0.016043,0.033454,0.003231,-0.005310,-0.032249,0.015058,0.007830,0.000274
32,0.266667,522,-0.000054,-0.004325,0.017357,0.027213,0.000931,-0.005639,-0.031920,0.015386,0.015715,0.017686
32,0.266667,523,0.000274,-0.006624,0.019000,0.026556,-0.000054,-0.008267,-0.029292,0.016700,0.014729,0.012758
32,0.266667,524,0.001260,-0.004982,0.020642,0.025570,0.002574,-0.005639,-0.031920,0.013744,0.030498,0.019328
32,0.266667,525,0.001917,-0.006296,0.018671,0.022942,0.005531,-0.004653,-0.030935,0.016700,0.031812,0.041010
32,0.266667,526,0.001917,-0.004325,0.020314,0.025242,0.004874,-0.002025,-0.031263,0.016043,0.018671,0.040682
32,0.266667,527,0.000931,-0.003339,0.021299,0.026556,0.009473,-0.001040,-0.031920,0.016043,0.023270,0.033454
33,0.275000,528,0.002245,-0.000711,0.020971,0.023599,0.004545,-0.001697,-0.042104,0.019985,0.025242,0.037397
33,0.275000,529,0.002245,0.004545,0.022285,0.024913,0.006188,-0.003996,-0.026664,0.022285,0.018671,0.047252
33,0.275000,530,0.001917,-0.006296,0.028527,0.024585,0.005531,-0.001697,-0.029949,0.019000,0.054480,0.035426
33,0.275000,531,0.003231,-0.003996,0.022942,0.028527,0.001588,-0.003011,-0.030278,0.019328,0.029841,0.052180
33,0.275000,532,0.005531,-0.004325,0.020642,0.022285,0.010787,-0.011224,-0.029949,0.019657,0.033783,0.050209
33,0.275000,533,0.007830,-0.005310,0.020971,0.021628,0.011772,-0.002354,-0.030278,0.014072,0.031483,0.058750
33,0.275000,534,0.002574,-0.001040,0.017357,0.022613,0.014072,-0.001368,-0.033563,0.018671,0.025899,0.058750
33,0.275000,535,0.004545,-0.003011,0.022613,0.013415,0.012758,-0.003996,-0.031920,0.020314,0.034440,0.056122
33,0.275000,536,0.003231,-0.005639,0.018343,0.025242,-0.001040,-0.003339,-0.032249,0.021628,0.027213,0.046595
33,0.275000,537,0.002245,-0.007282,0.016372,0.024256,0.011444,0.000603,-0.032249,0.021628,0.024913,0.048238
33,0.275000,538,0.007830,-0.007610,0.016372,0.021956,0.008816,-0.001040,-0.028635,0.022285,0.003231,0.030169
33,0.275000,539,-0.002025,-0.009581,0.021299,0.022285,0.010458,0.000603,-0.033891,0.021299,0.031155,0.009144
33,0.275000,540,0.000603,-0.009910,0.019657,0.016700,0.016043,-0.001368,-0.030278,0.018343,0.005531,0.048566
33,0.275000,541,-0.001368,-0.004982,0.017029,0.027213,0.020971,-0.002682,-0.031263,0.019328,0.008159,0.023270
33,0.275000,542,0.001260,-0.008267,0.019657,0.022285,0.019328,0.002245,-0.026664,0.020314,0.000274,0.019985
33,0.275000,543,0.003888,-0.016151,0.019328,0.024256,0.019657,-0.000383,-0.033234,0.019985,0.005531,0.018671
34,0.283333,544,-0.001040,-0.007282,0.019985,0.021956,0.018343,0.001917,-0.031263,0.020642,0.029841,0.002902
34,0.283333,545,-0.000711,-0.006624,0.019985,0.025899,0.004545,0.001588,-0.030606,0.019985,0.005202,0.014072
34,0.283333,546,-0.000383,-0.004653,0.015058,0.020642,0.013415,0.005202,-0.032577,0.020971,0.008816,0.005859
34,0.283333,547,-0.012209,-0.004325,0.017686,0.024913,0.011772,0.001917,-0.031263,0.018671,0.006845,0.004545
34,0.283333,548,-0.002682,-0.004653,0.016043,0.025570,0.009144,0.002902,-0.032249,0.021956,-0.000383,-0.003011
34,0.283333,549,-0.003339,-0.007610,0.018343,0.023599,0.010458,0.001917,-0.030606,0.021299,-0.014180,-0.002354
34,0.283333,550,-0.001368,-0.007610,0.020642,0.021956,0.007502,0.002902,-0.030606,0.019328,0.004874,-0.003339
34,0.283333,551,0.000274,-0.008267,0.019657,0.021299,0.003231,0.004545,-0.032577,0.021628,0.006845,0.004874
34,0.283333,552,-0.003011,-0.006624,0.019328,0.021956,0.005202,0.006845,-0.035534,0.021956,0.008816,0.016372
34,0.283333,553,0.004874,-0.007282,0.020314,0.021299,0.001917,0.007830,-0.028964,0.018343,0.004545,0.008816
34,0.283333,554,-0.000711,-0.008267,0.016043,0.023270,0.001260,0.006516,-0.030935,0.021628,0.019657,0.014729
34,0.283333,555,0.001588,-0.007939,0.019985,0.018014,0.002902,0.004217,-0.029949,0.021956,0.020642,0.035754
34,0.283333,556,0.003560,-0.007610,0.020971,0.023928,0.001588,-0.000711,-0.032906,0.020314,0.006516,0.023270
34,0.283333,557,0.003560,-0.007939,0.022285,0.022942,0.003888,0.003560,-0.029292,0.019328,0.021299,0.024585
34,0.283333,558,0.002574,-0.013852,0.022942,0.020971,0.006188,0.002574,-0.032906,0.017029,0.013415,0.025899
34,0.283333,559,0.000274,-0.008596,0.019328,0.025899,0.007173,0.002574,-0.032249,0.023270,0.031483,0.008816
35,0.291667,560,-0.000383,-0.007610,0.021628,0.025899,0.006516,0.000274,-0.028635,0.022285,0.026227,0.046924
35,0.291667,561,-0.002682,-0.007610,0.019000,0.027870,0.013744,-0.003339,-0.027978,0.024913,0.031155,0.041996
35,0.291667,562,0.000603,-0.006296,0.018343,0.024913,0.009801,0.002245,-0.027650,0.018671,0.020642,0.030169
35,0.291667,563,-0.003011,-0.007610,0.021628,0.020642,0.010787,-0.001040,-0.027978,0.025242,-0.000711,0.047909
35,0.291667,564,-0.000383,-0.003339,0.020971,0.016372,0.007502,0.000274,-0.029292,0.025899,0.028527,0.047909
35,0.291667,565,0.002574,-0.003996,0.019328,0.023270,0.009473,0.000931,-0.026007,0.024913,0.031812,0.041339
35,0.291667,566,0.000274,-0.006296,0.020314,0.025242,0.002245,-0.000054,-0.021408,0.022942,0.030826,0.047909
35,0.291667,567,-0.004982,-0.005639,0.017686,0.026884,0.000274,0.001588,-0.029949,0.024913,0.023928,0.043638
35,0.291667,568,-0.001040,-0.007282,0.015058,0.023270,0.005531,-0.000383,-0.028307,0.018671,0.026884,0.038711
35,0.291667,569,-0.001697,-0.008267,0.017029,0.033783,0.004874,0.001917,-0.027978,0.023270,0.016700,0.035754
35,0.291667,570,0.001917,-0.007610,0.019000,0.025570,0.010458,0.002574,-0.026993,0.026884,0.019657,0.040025
35,0.291667,571,0.002902,-0.007939,0.020314,0.024913,0.009473,-0.000054,-0.018780,0.025570,0.023928,0.027213
35,0.291667,572,0.002902,-0.006296,0.021299,0.024913,0.012429,0.001917,-0.025350,0.033126,0.030498,0.050537
35,0.291667,573,0.002574,-0.009253,0.028198,0.026227,0.014729,0.002245,-0.026335,0.027213,0.002574,0.054480
35,0.291667,574,0.000274,-0.010567,0.020971,0.027213,0.012429,0.003888,-0.027978,0.024913,0.006516,0.021628
35,0.291667,575,-0.001040,-0.009910,0.020971,0.023928,0.010458,0.010130,-0.027321,0.023928,0.010458,0.034112
36,0.300000,576,-0.000054,-0.007939,0.020971,0.025899,0.016372,0.003560,-0.027650,0.025242,0.005859,0.025899
36,0.300000,577,-0.000711,-0.012866,0.023599,0.020971,0.012758,0.002245,-0.027650,0.022613,-0.005967,0.021299
36,0.300000,578,-0.000054,-0.011224,0.029512,0.026227,0.012429,-0.000383,-0.028307,0.023270,-0.004982,0.046595
36,0.300000,579,-0.003668,-0.012538,0.021628,0.026227,0.015058,-0.000054,-0.028964,0.024256,0.006188,-0.003996
36,0.300000,580,-0.005967,-0.014180,0.019985,0.025242,0.005531,0.001260,-0.029621,0.024913,-0.005310,-0.000711
36,0.300000,581,-0.001040,-0.013852,0.019000,0.024913,0.008816,-0.007610,-0.026335,0.013744,-0.001040,-0.008267
36,0.300000,582,-0.003011,-0.009253,0.016700,0.027541,0.007173,-0.006624,-0.031592,0.025899,0.041010,-0.008924
36,0.300000,583,-0.002025,-0.009253,0.016043,0.035097,0.007173,-0.008596,-0.028307,0.023270,0.000931,-0.000383
36,0.300000,584,-0.001697,-0.003996,0.019000,0.022285,0.010458,-0.005639,-0.029292,0.024585,0.005202,-0.000711
36,0.300000,585,-0.001368,0.000603,0.017686,0.023928,0.002902,-0.007939,-0.020751,0.024913,0.019985,-0.005639
36,0.300000,586,0.005531,-0.001697,0.020642,0.020971,0.008159,-0.004982,-0.027650,0.014729,0.014072,0.012429
36,0.300000,587,-0.000054,-0.004653,0.028527,0.023928,0.010458,-0.000711,-0.030278,0.025899,0.007173,0.013086
36,0.300000,588,0.002245,-0.006296,0.020642,0.022613,0.013086,-0.001368,-0.028964,0.019000,0.018014,0.029841
36,0.300000,589,0.003231,-0.006296,0.022285,0.020642,0.014401,-0.015823,-0.030606,0.019000,0.015058,0.012758
36,0.300000,590,0.002574,-0.004982,0.020314,0.020642,0.008816,-0.002025,-0.040790,0.023270,0.018014,0.024585
36,0.300000,591,-0.002354,-0.000383,0.020642,0.023599,0.011115,-0.003668,-0.026664,0.026884,0.016043,0.032140
37,0.308333,592,-0.004325,-0.011552,0.027213,0.026884,0.012101,0.001917,-0.026993,0.027213,0.054151,0.011115
37,0.308333,593,-0.005967,-0.009581,0.018014,0.025570,0.013415,0.001588,-0.026664,0.026556,0.030498,0.045281
37,0.308333,594,-0.002682,-0.007610,0.019657,0.028855,0.013086,-0.009253,-0.025350,0.023270,0.030826,0.048566
37,0.308333,595,0.009473,-0.005639,0.022285,0.023599,0.010130,0.001588,-0.026664,0.023270,0.028198,0.054151
37,0.308333,596,0.010458,-0.003339,0.020971,0.023270,0.006188,0.007502,-0.026335,0.021628,0.024913,0.043638
37,0.308333,597,0.005531,-0.004653,0.021299,0.022942,0.011444,0.004217,-0.028635,0.025242,0.047252,0.053165
37,0.308333,598,0.003888,-0.008596,0.021628,0.023599,0.017029,0.001260,-0.025021,0.024585,0.033454,0.055465
37,0.308333,599,0.000274,-0.008924,0.019328,0.020971,0.013415,0.006845,-0.028964,0.027213,0.034112,0.047581
37,0.308333,600,-0.006296,-0.006296,0.019328,0.022285,0.007502,0.004217,-0.028635,0.030498,0.017686,0.039696
37,0.308333,601,0.000931,-0.014837,0.020642,0.020971,0.009473,0.006516,-0.028635,0.022285,0.015715,0.029512
37,0.308333,602,0.001260,-0.006624,0.019000,0.021956,0.014401,0.007830,-0.028964,0.027213,0.018671,0.043310
37,0.308333,603,0.001588,-0.007282,0.017357,0.022942,0.009144,0.006516,-0.024693,0.026556,0.026227,0.040353
37,0.308333,604,0.002574,-0.008924,0.019657,0.021956,0.003231,0.001260,-0.027321,0.024585,0.013086,0.028855
37,0.308333,605,-0.012538,-0.013195,0.017029,0.023270,0.000931,0.005859,-0.031263,0.025570,0.020314,0.031812
37,0.308333,606,0.002245,-0.015166,0.018343,0.021628,-0.001368,0.000603,-0.026007,0.025899,0.008159,0.019328
37,0.308333,607,-0.002682,-0.022722,0.022942,0.025570,-0.002354,-0.001697,-0.029621,0.026556,0.030826,0.001588
38,0.316667,608,-0.004325,-0.018123,0.020971,0.019000,-0.004325,-0.002354,-0.030606,0.024256,0.021628,0.033783
38,0.316667,609,-0.001368,-0.018780,0.023599,0.019000,-0.001040,-0.008924,-0.024693,0.022942,0.012429,0.019328
38,0.316667,610,0.000603,-0.028964,0.023599,0.018343,-0.000711,-0.007610,-0.024364,0.019985,0.001917,0.006845
38,0.316667,611,-0.006624,-0.018451,0.024585,0.019328,-0.001368,-0.011881,-0.025678,0.027213,-0.013523,0.009144
38,0.316667,612,-0.006624,-0.020751,0.015386,0.020314,0.000931,-0.011552,-0.026993,0.022285,-0.000383,0.006516
38,0.316667,613,-0.004653,-0.014509,0.017029,0.020314,-0.004653,-0.004982,-0.031263,0.022613,0.003231,0.004545
38,0.316667,614,-0.010567,-0.009581,0.016700,0.019657,0.002245,-0.003011,-0.035205,0.021956,0.005859,0.005859
38,0.316667,615,-0.002682,-0.005639,0.016700,0.021956,0.003231,-0.003011,-0.028964,0.026556,0.003888,0.003231
38,0.316667,616,-0.002682,-0.008596,0.011444,0.020642,0.006516,-0.003668,-0.026664,0.020314,0.009144,-0.002025
38,0.316667,617,-0.002682,-0.010895,0.018343,0.014729,0.004545,-0.000383,-0.029949,0.022285,0.013086,0.012758
38,0.316667,618,-0.004653,-0.008596,0.015386,0.022942,0.004874,0.000931,-0.030935,0.021299,0.010458,0.014401
38,0.316667,619,0.003231,-0.011224,0.017686,0.019328,0.010787,0.003560,-0.032577,0.018671,0.012429,0.017357
38,0.316667,620,-0.004982,-0.008924,0.016700,0.019657,0.010458,0.002902,-0.029949,0.024585,0.016043,0.027541
38,0.316667,621,-0.000054,-0.007610,0.009801,0.022285,0.010130,0.003560,-0.029949,0.019328,0.017357,0.043967
38,0.316667,622,-0.000383,-0.008596,0.014729,0.027213,0.009144,0.006516,-0.032906,0.023928,0.023599,0.011444
38,0.316667,623,-0.003339,-0.010895,0.014729,0.024913,0.007173,0.013086,-0.030935,0.023270,0.032140,0.038382
39,0.325000,624,0.000274,-0.010895,0.016372,0.024585,0.008816,0.003560,-0.023379,0.021299,0.033126,0.035754
39,0.325000,625,0.000603,-0.014180,0.015386,0.023928,0.010130,0.003560,-0.032577,0.018671,0.024913,0.037725
39,0.325000,626,0.001588,-0.007282,0.014729,0.025242,0.010130,-0.001040,-0.029621,0.019657,0.013744,0.070905
39,0.325000,627,0.002902,-0.007610,0.017357,0.025242,0.006516,-0.001697,-0.030935,0.023928,0.031812,0.040353
39,0.325000,628,0.001260,-0.005310,0.013086,0.026556,0.006516,-0.005639,-0.030278,0.021956,0.030826,0.050537
39,0.325000,629,0.002902,-0.004325,0.017686,0.024585,0.008159,-0.006953,-0.028635,0.016372,0.016372,0.037725
39,0.325000,630,0.002574,-0.009253,0.019657,0.027213,0.007502,-0.006624,-0.031263,0.020971,0.049223,0.041339
39,0.325000,631,0.001917,-0.004325,0.021299,0.023928,0.008816,-0.004325,-0.029621,0.024256,0.018671,0.035097
39,0.325000,632,0.002902,-0.005310,0.016700,0.021956,0.017029,-0.005639,-0.029292,0.023599,0.019000,0.031483
39,0.325000,633,0.000603,-0.004325,0.016700,0.024913,0.008487,-0.005639,-0.036191,0.025242,0.027213,0.033783
39,0.325000,634,-0.003011,-0.005310,0.020971,0.022613,0.011772,-0.008924,-0.031592,0.026227,0.037725,0.041996
39,0.325000,635,0.002574,-0.004982,0.022285,0.024256,0.012101,-0.007610,-0.028307,0.019328,0.017357,0.069263
39,0.325000,636,0.001260,-0.005639,0.017029,0.033454,0.009801,-0.005310,-0.027978,0.018343,0.022942,0.013744
39,0.325000,637,0.001588,-0.005310,0.018343,0.024913,0.014401,-0.017466,-0.028307,0.019328,0.019985,0.016043
39,0.325000,638,0.001260,-0.002682,0.015058,0.025570,0.007830,-0.005967,-0.035862,0.024256,0.012758,0.021299
39,0.325000,639,0.001588,-0.003668,0.016043,0.026884,0.008159,-0.004653,-0.032249,0.019985,0.046924,0.015058
40,0.333333,640,0.000931,-0.010238,0.026884,0.024256,0.010130,-0.003011,-0.030935,0.023270,0.009801,-0.001368
40,0.333333,641,-0.000054,-0.007610,0.019985,0.029841,-0.001697,-0.001040,-0.031263,0.018671,0.008816,0.012758
40,0.333333,642,0.000931,-0.007610,0.019985,0.024256,0.010458,-0.005967,-0.029292,0.017686,-0.003668,0.002245
40,0.333333,643,0.005531,-0.006953,0.019000,0.024913,0.009144,0.001588,-0.027978,0.019657,-0.005639,0.001260
40,0.333333,644,-0.003668,-0.004653,0.019985,0.023270,0.010787,0.000274,-0.031920,0.022285,-0.005310,-0.002354
40,0.333333,645,0.000603,-0.006296,0.019985,0.021628,0.008159,0.003231,-0.032906,0.023599,0.018671,-0.010895
40,0.333333,646,0.001260,-0.004325,0.023928,0.025242,0.000274,0.002902,-0.032249,0.019985,-0.000711,-0.001697
40,0.333333,647,0.002574,-0.004653,0.021956,0.023928,0.008159,-0.007939,-0.029292,0.020971,0.009801,-0.001368
40,0.333333,648,0.001260,-0.006624,0.021299,0.023599,0.000603,0.003560,-0.033891,0.025242,0.020642,0.008816
40,0.333333,649,-0.001368,-0.008924,0.022942,0.022613,0.005859,0.003888,-0.031920,0.021299,0.009473,0.015058
40,0.333333,650,-0.001697,-0.007939,0.025899,0.012758,0.006845,0.003888,-0.031263,0.023928,0.019000,0.023599
40,0.333333,651,-0.000711,-0.008267,0.025242,0.026556,-0.005639,0.006516,-0.032577,0.023928,0.019328,0.013744
40,0.333333,652,-0.000383,-0.005967,0.020971,0.022613,0.004874,0.008816,-0.040462,0.024913,0.023599,0.030169
40,0.333333,653,0.001917,-0.006624,0.021956,0.024585,0.005859,0.003560,-0.029621,0.023270,0.027870,0.026227
40,0.333333,654,0.002902,-0.005639,0.023270,0.023928,0.007830,0.002245,-0.030606,0.021628,0.022613,0.054808
40,0.333333,655,0.001260,-0.002025,0.026884,0.026227,0.008159,0.001260,-0.029292,0.024256,0.033126,0.015386
41,0.341667,656,0.000274,-0.003668,0.020971,0.020971,0.012429,0.005859,-0.030278,0.023599,0.032797,0.036083
41,0.341667,657,0.003231,-0.005310,0.021956,0.020971,0.009801,-0.004325,-0.029949,0.021628,0.028527,0.043310
41,0.341667,658,0.005859,-0.004325,0.019328,0.020971,0.007173,0.002574,-0.029949,0.017357,0.014729,0.024585
41,0.341667,659,0.001588,-0.000383,0.008159,0.023599,0.009144,-0.000383,-0.030935,0.022613,0.038382,0.031812
41,0.341667,660,0.001917,-0.002682,0.022942,0.026227,0.013086,-0.001368,-0.030935,0.023599,0.022285,0.041010
41,0.341667,661,0.003560,0.004874,0.017029,0.021299,0.011115,0.000603,-0.028964,0.024585,0.023599,0.044624
41,0.341667,662,0.004874,0.004545,0.016372,0.021956,0.013086,-0.003339,-0.033891,0.024913,0.023270,0.039368
41,0.341667,663,0.006516,-0.007610,0.018671,0.020642,0.012758,-0.004653,-0.026007,0.020971,0.023928,0.036083
41,0.341667,664,0.001588,0.002245,0.020642,0.011772,0.014072,-0.005639,-0.026664,0.026556,0.014401,0.039368
41,0.341667,665,0.002245,-0.001368,0.019328,0.018014,0.012101,-0.007282,-0.025678,0.025242,0.028855,0.040353
41,0.341667,666,0.001588,-0.001368,0.017686,0.024585,0.008816,-0.005310,-0.027321,0.024585,0.019328,0.031812
41,0.341667,667,-0.002025,-0.003668,0.016700,0.023270,0.011772,-0.001368,-0.035205,0.023599,0.013415,0.031483
41,0.341667,668,-0.000383,-0.005310,0.018671,0.023270,0.011444,-0.003011,-0.029292,0.020971,0.005859,0.019000
41,0.341667,669,-0.002682,-0.006624,0.021299,0.028527,0.007830,-0.003339,-0.028964,0.025242,0.013744,-0.003996
41,0.341667,670,-0.001368,-0.004325,0.019657,0.016043,0.007830,-0.005310,-0.027978,0.025899,0.015386,0.024256
41,0.341667,671,-0.000054,-0.005639,0.018014,0.025899,0.006845,-0.009581,-0.027978,0.026227,0.004874,0.022942
42,0.350000,672,0.004874,-0.007939,0.019000,0.023928,0.005531,-0.003996,-0.027650,0.026556,0.000931,0.018671
42,0.350000,673,-0.000383,-0.010895,0.020642,0.021299,0.005531,-0.006296,-0.029621,0.023928,-0.015823,0.014729
42,0.350000,674,0.000603,-0.005967,0.012429,0.019985,0.003888,-0.005310,-0.029292,0.024585,0.009801,0.011772
42,0.350000,675,0.000274,-0.008596,0.021299,0.021628,-0.002025,-0.005310,-0.026664,0.024256,-0.006953,0.010130
42,0.350000,676,-0.000711,-0.007939,0.017686,0.022285,0.001260,0.000931,-0.027978,0.026227,0.004217,0.010130
42,0.350000,677,-0.002682,-0.011552,0.020971,0.020314,0.004217,-0.006296,-0.029621,0.030498,0.018343,0.014072
42,0.350000,678,0.001917,-0.022065,0.019328,0.021628,0.006516,-0.003668,-0.031263,0.021299,0.012101,0.009473
42,0.350000,679,-0.002354,-0.017466,0.019328,0.022285,0.010130,-0.003668,-0.030935,0.024585,0.007830,0.017357
42,0.350000,680,-0.003668,-0.021079,0.019657,0.020971,0.010130,-0.003339,-0.031263,0.023270,0.006845,0.033454
42,0.350000,681,-0.000711,-0.020094,0.017357,0.022942,0.013744,-0.012866,-0.030278,0.023599,0.011115,0.012429
42,0.350000,682,-0.007939,-0.016808,0.015715,0.019657,0.009473,-0.005310,-0.031920,0.032140,0.028527,0.040353
42,0.350000,683,-0.000054,-0.011552,0.015715,0.020314,0.011115,-0.002025,-0.028964,0.023270,0.008816,0.064664
42,0.350000,684,-0.003011,-0.008924,0.017029,0.028198,0.007502,0.000274,-0.029621,0.024585,0.022285,0.023599
42,0.350000,685,-0.003339,-0.009910,0.018671,0.021956,0.008487,0.008487,-0.028964,0.023928,0.022942,0.040353
42,0.350000,686,-0.003339,-0.010567,0.016043,0.026556,0.005202,-0.001697,-0.019765,0.024913,0.028855,0.040682
42,0.350000,687,-0.002354,-0.013523,0.014729,0.026884,0.005859,0.001260,-0.029949,0.021299,0.052180,0.043638
43,0.358333,688,-0.000383,-0.008596,0.013086,0.025570,0.006516,-0.000711,-0.025350,0.021628,0.010130,0.074848
43,0.358333,689,-0.002682,-0.010238,0.015386,0.023599,0.011444,0.000274,-0.027978,0.025899,0.027541,0.042324
43,0.358333,690,-0.000711,-0.010567,0.017686,0.023270,0.001260,0.006845,-0.028635,0.025570,0.027541,0.054480
43,0.358333,691,-0.000383,-0.009581,0.018343,0.025242,0.006188,0.000931,-0.028635,0.023928,0.022942,0.050209
43,0.358333,692,-0.006296,0.000603,0.017357,0.023270,0.007173,0.000274,-0.026007,0.028855,0.038382,0.057765
43,0.358333,693,-0.003996,-0.008596,0.015058,0.024585,0.006516,-0.000383,-0.029949,0.027213,0.037397,0.048566
43,0.358333,694,-0.005639,-0.007939,0.016043,0.028527,-0.004982,-0.001040,-0.028635,0.025242,0.033454,0.061050
43,0.358333,695,-0.004653,-0.009581,0.020971,0.023928,0.007173,0.002902,-0.027978,0.022613,0.038054,0.070248
43,0.358333,696,-0.002354,-0.010567,0.021956,0.024913,0.010458,-0.000054,-0.025021,0.019657,0.020314,0.048566
43,0.358333,697,-0.004982,-0.003339,0.020314,0.026884,0.011772,-0.001368,-0.031263,0.019328,0.019328,0.048238
43,0.358333,698,-0.002025,-0.011224,0.017357,0.023599,0.023599,-0.003011,-0.026993,0.021628,0.006845,0.035754
43,0.358333,699,-0.003668,-0.009581,0.017686,0.028527,0.009473,-0.003339,-0.028307,0.021956,0.010458,0.034440
43,0.358333,700,-0.001040,-0.009910,0.020314,0.024585,0.017029,0.001260,-0.037834,0.024256,0.015715,0.027870
43,0.358333,701,0.007830,-0.007939,0.020971,0.023270,0.009144,-0.000711,-0.024036,0.020642,-0.006296,0.019328
43,0.358333,702,-0.003996,-0.005310,0.007173,0.020971,0.005531,-0.004325,-0.028964,0.021956,0.005531,0.003231
43,0.358333,703,-0.004325,-0.006296,0.023599,0.006516,0.006516,-0.008596,-0.027321,0.022285,-0.003339,0.015386
44,0.366667,704,-0.005310,-0.007282,0.018671,0.022942,0.010787,-0.013852,-0.026993,0.022613,0.001260,-0.003339
44,0.366667,705,-0.002682,-0.001697,0.017686,0.022613,0.004874,-0.010238,-0.026007,0.024913,0.003231,-0.002682
44,0.366667,706,-0.002354,-0.007610,0.016372,0.019328,0.010787,-0.010238,-0.027321,0.026884,0.003888,0.002574
44,0.366667,707,-0.002682,-0.010895,0.023599,0.023928,0.003231,-0.007282,-0.028635,0.025242,0.030826,-0.012866
44,0.366667,708,0.000274,-0.006624,0.018014,0.021956,0.002902,-0.007610,-0.029621,0.026556,0.010787,-0.000054
44,0.366667,709,0.003560,-0.002354,0.022942,0.024913,0.008816,-0.014180,-0.027650,0.022942,0.009473,-0.004653
44,0.366667,710,0.013086,0.000603,0.019328,0.023599,0.003560,-0.001040,-0.024364,0.018671,-0.018123,-0.020422
44,0.366667,711,0.001917,-0.001368,0.020642,0.020971,0.006188,-0.006296,-0.029621,0.023270,-0.014509,-0.014509
44,0.366667,712,0.003231,0.000931,0.022613,0.012101,0.005202,-0.006296,-0.029292,0.023270,0.002574,-0.004982
44,0.366667,713,0.003888,-0.002025,0.017029,0.024256,0.007502,-0.006953,-0.027650,0.021956,0.004874,0.003888
44,0.366667,714,0.002902,-0.004325,0.020314,0.024585,0.003231,-0.006953,-0.028307,0.022285,0.013744,-0.005310
44,0.366667,715,-0.011552,-0.006296,0.019328,0.025899,0.001917,-0.005639,-0.037834,0.020642,0.025242,0.011115
44,0.366667,716,0.000603,-0.011552,0.019328,0.027541,0.001588,-0.005967,-0.033891,0.015715,0.025570,0.009801
44,0.366667,717,-0.003339,-0.007939,0.024256,0.017686,0.001260,-0.006296,-0.035534,0.019000,0.019985,0.027541
44,0.366667,718,-0.004653,-0.014837,0.019657,0.015715,0.004874,-0.005639,-0.033234,0.019000,0.026884,0.031155
44,0.366667,719,-0.001697,-0.016151,0.018343,0.022942,0.005859,-0.008596,-0.032906,0.020642,0.029184,0.025242
45,0.375000,720,-0.010895,-0.014180,0.016043,0.021956,0.005531,0.002245,-0.038491,0.022942,0.023928,0.043638
45,0.375000,721,-0.002682,-0.013195,0.020314,0.019657,0.006845,0.001588,-0.029292,0.022285,0.003560,0.034112
45,0.375000,722,-0.002354,-0.017466,0.014072,0.022285,0.006516,0.006516,-0.031263,0.024913,0.052837,0.025242
45,0.375000,723,-0.001368,-0.019437,0.019657,0.022942,0.005531,0.007173,-0.028307,0.021628,0.042981,0.051523
45,0.375000,724,-0.001368,-0.022393,0.018014,0.022942,0.011444,0.002574,-0.029621,0.021956,0.034440,0.049880
45,0.375000,725,0.001917,-0.011552,0.018014,0.022285,0.007830,0.013086,-0.028635,0.020314,0.021956,0.046924
45,0.375000,726,0.000274,-0.011552,0.022285,0.018671,0.010130,0.010458,-0.026335,0.020642,-0.001368,0.047909
45,0.375000,727,0.003560,-0.005310,0.020642,0.018014,0.009473,0.011444,-0.029621,0.022942,0.036411,0.053822
45,0.375000,728,0.001588,-0.005310,0.021628,0.023599,0.001588,0.015386,-0.029949,0.023599,0.028198,0.061050
45,0.375000,729,-0.001040,-0.006953,0.018671,0.022942,0.008487,0.017357,-0.035205,0.022285,0.018671,0.056122
45,0.375000,730,0.000274,-0.003996,0.018671,0.026556,0.008816,0.015715,-0.027978,0.023599,0.018343,0.039696
45,0.375000,731,-0.001040,-0.006296,0.019985,0.024256,0.009473,0.011772,-0.027978,0.024913,0.012429,0.037725
45,0.375000,732,0.002574,-0.005639,0.020642,0.026556,0.006845,0.013415,-0.031263,0.024585,0.040025,0.026884
45,0.375000,733,0.002574,0.002902,0.016700,0.032469,0.005531,0.009144,-0.027978,0.024913,0.005859,0.036411
45,0.375000,734,0.006516,0.007173,0.021628,0.022942,0.005202,0.009801,-0.027650,0.026227,0.001588,0.019657
45,0.375000,735,0.003560,0.001260,0.018671,0.022285,0.003560,0.006516,-0.028964,0.022285,0.001588,0.010787
46,0.383333,736,0.002574,0.001917,0.018671,0.025570,0.006188,0.003231,-0.025678,0.023599,-0.015823,0.049880
46,0.383333,737,0.000603,-0.004653,0.016372,0.024585,0.014729,0.003231,-0.027978,0.024585,0.001260,0.005202
46,0.383333,738,-0.003011,-0.004325,0.017357,0.027870,0.008159,0.005202,-0.026993,0.023928,-0.001368,0.007173
46,0.383333,739,-0.004982,-0.005967,0.018343,0.024256,0.009801,0.000274,-0.028307,0.021956,0.002245,-0.010238
46,0.383333,740,0.002902,-0.013195,0.020971,0.024256,0.007830,0.000274,-0.030278,0.021299,0.016372,-0.005967
46,0.383333,741,0.002245,-0.008596,0.021299,0.024913,0.009144,-0.003011,-0.028635,0.023599,-0.019108,0.029184
46,0.383333,742,-0.000711,-0.007610,0.019000,0.022942,0.014401,-0.002354,-0.029621,0.025570,-0.004653,-0.009910
46,0.383333,743,-0.000383,-0.004653,0.021299,0.022942,0.006188,0.004217,-0.028964,0.023270,0.003888,-0.005310
46,0.383333,744,0.006845,-0.000383,0.021628,0.023599,0.009144,-0.002682,-0.024036,0.013415,0.004545,0.005859
46,0.383333,745,0.003888,0.006188,0.019985,0.026884,0.007830,-0.001040,-0.029292,0.022285,0.014729,0.011772
46,0.383333,746,0.004217,0.006188,0.021299,0.019657,0.008487,-0.003996,-0.026664,0.025570,0.015058,0.009801
46,0.383333,747,0.002902,0.002245,0.017029,0.021956,0.012429,-0.003011,-0.028635,0.026227,0.010787,0.019985
46,0.383333,748,-0.000383,-0.008596,0.017686,0.025899,0.005531,-0.005310,-0.025678,0.024913,0.020971,0.013086
46,0.383333,749,-0.001040,-0.024693,0.020642,0.022942,0.010130,-0.005639,-0.028964,0.022613,0.027870,0.030826
46,0.383333,750,-0.002025,-0.030278,0.019657,0.022285,0.011115,-0.005310,-0.026993,0.019657,0.014401,0.062364
46,0.383333,751,-0.001697,-0.029292,0.015715,0.028527,0.007173,-0.007610,-0.027978,0.022285,0.032140,0.037397
47,0.391667,752,-0.003011,-0.021408,0.017686,0.018671,0.006845,-0.002025,-0.029621,0.021299,0.021628,0.036411
47,0.391667,753,-0.005639,-0.015494,0.017029,0.020314,0.005859,-0.004325,-0.039805,0.024913,0.028198,0.040025
47,0.391667,754,-0.006624,-0.010895,0.019000,0.019328,0.006516,-0.005967,-0.031920,0.026884,0.055794,0.042324
47,0.391667,755,-0.004982,-0.022393,0.027541,0.017029,0.003888,-0.003996,-0.031920,0.025899,0.050209,0.026556
47,0.391667,756,-0.003011,-0.017466,0.019000,0.017357,0.001260,-0.003339,-0.031592,0.024256,0.032469,0.055137
47,0.391667,757,-0.000054,-0.010238,0.018343,0.020642,0.005531,-0.003668,-0.030606,0.021628,0.042981,0.056451
47,0.391667,758,-0.002682,-0.007282,0.021628,0.017686,0.008816,-0.006296,-0.027321,0.019985,0.010130,0.051194
47,0.391667,759,-0.002025,-0.007610,0.020971,0.018671,0.010458,-0.005967,-0.029292,0.022613,0.033454,0.052180
47,0.391667,760,-0.001697,-0.009253,0.022942,0.009801,0.008816,-0.005639,-0.029292,0.025570,0.035754,0.054480
47,0.391667,761,-0.002682,-0.014180,0.017357,0.024256,-0.001697,-0.003011,-0.027321,0.024256,0.033126,0.048566
47,0.391667,762,-0.000711,-0.011552,0.017686,0.021628,0.006845,-0.003339,-0.028635,0.023599,0.036740,0.043310
47,0.391667,763,0.004217,-0.006296,0.019000,0.022613,0.004545,-0.003668,-0.028964,0.026556,0.018014,0.030826
47,0.391667,764,0.001260,-0.001697,0.020314,0.022613,0.007502,-0.003011,-0.030606,0.020314,0.009801,0.030826
47,0.391667,765,0.001917,-0.001368,0.025570,0.025242,0.007173,-0.004653,-0.031920,0.020971,0.017686,0.023928
47,0.391667,766,0.001917,-0.004982,0.020642,0.024585,0.004545,-0.006953,-0.032577,0.018671,0.006516,0.020314
47,0.391667,767,0.002902,-0.006296,0.020314,0.020642,0.012758,-0.008596,-0.029621,0.019328,0.007502,0.014072
48,0.400000,768,-0.001697,-0.002025,0.017686,0.023928,0.011772,-0.014837,-0.033891,0.024256,0.013086,0.011444
48,0.400000,769,0.001917,-0.002025,0.005531,0.024913,0.010787,-0.014509,-0.031263,0.022285,0.006516,0.010787
48,0.400000,770,-0.001368,-0.005639,0.019985,0.025242,0.007830,-0.014180,-0.032249,0.022613,0.011444,-0.003011
48,0.400000,771,-0.001697,-0.006953,0.014072,0.026556,0.010458,-0.009581,-0.030278,0.020314,0.006845,0.004217
48,0.400000,772,0.002245,-0.006953,0.017357,0.022285,0.006516,-0.010567,-0.026335,0.019657,-0.007939,0.006188
48,0.400000,773,0.002245,-0.013852,0.017686,0.022613,0.008159,-0.005967,-0.026664,0.015715,-0.006296,-0.002354
48,0.400000,774,-0.003339,-0.005967,0.023928,0.022285,0.010130,-0.004325,-0.027650,0.023928,-0.029949,0.001260
48,0.400000,775,-0.001368,-0.007282,0.021628,0.018014,0.007173,-0.001697,-0.031263,0.024256,0.012101,0.001588
48,0.400000,776,-0.003339,-0.013195,0.019000,0.026884,0.011444,-0.011881,-0.029621,0.023928,0.009801,0.009473
48,0.400000,777,-0.004325,-0.014509,0.018671,0.023270,0.007502,0.005202,-0.026664,0.018014,-0.002354,0.007830
48,0.400000,778,-0.004325,-0.016480,0.018671,0.023599,0.006516,0.005202,-0.024364,0.023599,-0.001040,-0.000711
48,0.400000,779,-0.007610,-0.020094,0.022613,0.026556,0.004217,0.005859,-0.024693,0.029512,0.013086,-0.009910
48,0.400000,780,-0.005967,-0.016480,0.020971,0.017357,0.004874,0.002902,-0.026335,0.027541,0.017686,0.026227
48,0.400000,781,-0.005310,-0.017794,0.017686,0.023599,0.007502,-0.001368,-0.026993,0.025570,0.014401,0.023599
48,0.400000,782,-0.004653,-0.012209,0.018014,0.021956,0.007830,0.006516,-0.032906,0.022942,0.009801,0.023928
48,0.400000,783,-0.003339,-0.008596,0.017686,0.021628,0.005202,0.006516,-0.027978,0.023928,0.030826,0.019985
49,0.408333,784,-0.003996,-0.009581,0.020642,0.019985,0.004217,0.006845,-0.028307,0.021628,0.015715,0.039696
49,0.408333,785,-0.002025,-0.005967,0.018343,0.016700,0.001588,0.005859,-0.027978,0.021628,0.024256,0.035097
49,0.408333,786,-0.001368,-0.008267,0.017686,0.023928,0.004545,0.000931,-0.028307,0.021956,0.029184,0.042653
49,0.408333,787,0.003888,-0.011881,0.020971,0.022613,0.002902,0.004874,-0.027650,0.021299,0.036740,0.041667
49,0.408333,788,-0.001040,-0.010238,0.024913,0.020642,0.004545,0.001917,-0.027650,0.021299,0.005859,0.044624
49,0.408333,789,0.002902,-0.004653,0.020971,0.019657,0.002245,0.000274,-0.028635,0.020314,0.029841,0.070577
49,0.408333,790,0.006188,-0.004982,0.022942,0.023270,0.003888,-0.001368,-0.027650,0.021299,0.028855,0.045610
49,0.408333,791,0.005531,-0.001697,0.019328,0.025570,0.004545,0.001588,-0.029621,0.022613,0.034112,0.047909
49,0.408333,792,-0.000383,-0.003339,0.019985,0.024256,0.007830,-0.003011,-0.032249,0.026884,0.041667,0.061050
49,0.408333,793,0.005202,-0.008924,0.017357,0.024585,0.004874,-0.000711,-0.032906,0.018343,0.036083,0.050866
49,0.408333,794,0.000274,-0.001368,0.018343,0.021628,0.005202,-0.001040,-0.032906,0.021299,0.022942,0.030169
49,0.408333,795,0.003231,-0.005967,0.018671,0.023270,0.008816,-0.003339,-0.028307,0.019657,0.018014,0.030498
49,0.408333,796,0.000274,-0.005639,0.017686,0.024585,0.003560,-0.005967,-0.021079,0.021299,0.020971,0.025570
49,0.408333,797,-0.002682,-0.006953,0.020642,0.023270,0.006516,-0.006624,-0.028964,0.019328,0.014729,0.038054
49,0.408333,798,-0.000054,-0.005967,0.025242,0.024256,0.008487,-0.002682,-0.026664,0.022942,-0.008267,0.053165
49,0.408333,799,-0.000711,-0.002025,0.017029,0.031155,0.009144,-0.000383,-0.027978,0.026227,0.008159,0.003888
50,0.416667,800,-0.000054,-0.001368,0.019000,0.025570,0.005531,0.004545,-0.027650,0.028855,0.012429,0.030826
50,0.416667,801,0.002574,-0.003339,0.017686,0.025570,0.005202,-0.004325,-0.021736,0.024585,0.018014,0.017029
50,0.416667,802,0.002574,-0.007282,0.017357,0.026556,0.007173,-0.001040,-0.031592,0.024256,0.035426,0.015715
50,0.416667,803,0.002245,-0.006624,0.024913,0.024256,0.013415,-0.002682,-0.027650,0.026227,-0.011881,0.013086
50,0.416667,804,-0.000711,-0.006296,0.015058,0.023270,0.020314,-0.002682,-0.029292,0.026884,-0.004325,0.013086
50,0.416667,805,0.002245,-0.007610,0.017686,0.023599,0.013415,0.000603,-0.029621,0.024913,-0.003011,0.006188
50,0.416667,806,-0.000711,-0.005639,0.019985,0.023270,0.015058,-0.004325,-0.031592,0.023928,0.005202,0.016700
50,0.416667,807,-0.002354,-0.001040,0.018014,0.024256,0.011772,-0.003011,-0.032577,0.024913,0.034440,0.006516
50,0.416667,808,0.002574,-0.007939,0.014729,0.031155,0.010787,-0.004325,-0.032906,0.022285,0.011444,0.014729
50,0.416667,809,-0.000054,-0.005967,0.016700,0.024585,0.011772,-0.004653,-0.026664,0.022942,0.009144,0.011772
50,0.416667,810,0.001917,-0.005967,0.018343,0.025899,0.008816,-0.004325,-0.032577,0.024256,0.015715,0.008487
50,0.416667,811,0.004217,-0.004325,0.016700,0.023270,0.012101,-0.004982,-0.027650,0.028527,-0.008267,-0.001368
50,0.416667,812,0.004545,-0.005310,0.017357,0.023270,0.013086,-0.004653,-0.030278,0.029841,-0.013852,0.009144
50,0.416667,813,0.000603,-0.007610,0.015058,0.027213,0.014401,-0.005310,-0.025678,0.022942,0.016700,0.023928
50,0.416667,814,0.000274,-0.005967,0.017357,0.031812,0.004545,-0.003668,-0.029292,0.024256,0.015386,0.011772
50,0.416667,815,0.000931,-0.008267,0.016700,0.024585,0.012758,-0.010238,-0.027321,0.021628,0.024585,0.013086
51,0.425000,816,0.006845,-0.006296,0.018014,0.026884,0.009473,-0.007282,-0.028307,0.027213,0.010130,0.015715
51,0.425000,817,-0.003996,-0.007282,0.022613,0.023928,0.010130,-0.007282,-0.031920,0.021299,0.034769,0.005202
51,0.425000,818,-0.003668,-0.006624,0.019657,0.016372,0.010787,-0.009581,-0.027321,0.021628,0.020314,0.044624
51,0.425000,819,-0.001368,-0.006953,0.020642,0.025570,0.016372,-0.017466,-0.027978,0.020314,0.027213,0.031155
51,0.425000,820,-0.000383,-0.008596,0.021628,0.023599,0.010787,-0.003011,-0.026993,0.018343,0.020314,0.038054
51,0.425000,821,0.000931,-0.013523,0.022942,0.025899,0.012101,-0.005967,-0.032577,0.019328,0.023928,0.035097
51,0.425000,822,0.004217,-0.002682,0.011115,0.025570,0.009144,-0.004982,-0.030935,0.020314,0.052508,0.035426
51,0.425000,823,0.003231,-0.004325,0.026227,0.029184,0.007830,0.000274,-0.030278,0.022285,0.038054,0.035097
51,0.425000,824,-0.001040,-0.003011,0.021628,0.027213,0.012758,0.002574,-0.028635,0.022613,0.038054,0.042981
51,0.425000,825,0.009144,-0.003011,0.019657,0.026884,0.005531,0.003888,-0.025350,0.024913,0.008487,0.022285
51,0.425000,826,0.008159,-0.006953,0.022285,0.024585,0.006188,0.002574,-0.028635,0.016700,0.003231,0.011772
51,0.425000,827,0.004874,-0.001697,0.017029,0.023599,0.006845,-0.001040,-0.028964,0.019328,0.003888,0.037068
51,0.425000,828,0.002902,-0.004325,0.020971,0.026227,0.009801,-0.000383,-0.027321,0.021299,0.007502,0.013086
51,0.425000,829,0.001260,-0.004325,0.021628,0.024256,0.004545,-0.004653,-0.027978,0.020642,0.013086,-0.001368
51,0.425000,830,-0.010238,-0.005639,0.021299,0.023928,0.007502,0.002245,-0.033891,0.022285,0.014401,0.018014
51,0.425000,831,-0.005310,-0.009253,0.025242,0.023599,0.009473,0.001917,-0.028635,0.022942,-0.005639,0.015715
52,0.433333,832,-0.006624,-0.013523,0.020971,0.031812,0.007502,0.004545,-0.029949,0.023270,0.029512,-0.009581
52,0.433333,833,-0.002682,-0.008596,0.021628,0.026884,0.000931,0.005202,-0.028307,0.022285,0.018014,0.010458
52,0.433333,834,0.001588,-0.004982,0.022285,0.023928,0.002574,-0.001040,-0.026664,0.022942,0.011115,0.010458
52,0.433333,835,-0.000711,-0.000711,0.023270,0.022613,0.000274,0.004545,-0.026664,0.025242,-0.000383,0.011115
52,0.433333,836,-0.001697,-0.000054,0.019328,0.020314,-0.004325,0.012758,-0.026993,0.024256,0.000603,0.008159
52,0.433333,837,0.000274,-0.001368,0.017357,0.021628,0.000931,0.003560,-0.027321,0.024585,0.018671,-0.004325
52,0.433333,838,0.001588,-0.001040,0.017686,0.019328,0.011772,0.002574,-0.027321,0.025570,0.012758,0.010458
52,0.433333,839,0.000274,0.000931,0.020314,0.024256,0.004545,-0.004982,-0.027978,0.023928,0.002574,0.007830
52,0.433333,840,-0.002025,-0.001040,0.020314,0.023599,0.004874,-0.000054,-0.030278,0.020971,0.021956,0.010787
52,0.433333,841,-0.000711,-0.011224,0.019985,0.020314,0.008816,-0.002354,-0.027650,0.021956,-0.003668,0.014401
52,0.433333,842,-0.002025,-0.010238,0.021956,0.016372,0.009473,-0.005639,-0.027978,0.025899,0.017029,0.025899
52,0.433333,843,-0.001040,-0.014180,0.023270,0.022285,0.005531,-0.004982,-0.026335,0.025570,0.005531,0.029184
52,0.433333,844,0.000603,-0.016808,0.023270,0.017686,0.009473,-0.005967,-0.021408,0.027870,0.008159,0.028855
52,0.433333,845,-0.002025,-0.011224,0.020971,0.019000,0.009144,-0.004325,-0.028635,0.031812,0.009473,0.035426
52,0.433333,846,0.004545,-0.009253,0.015386,0.019328,0.009801,-0.002682,-0.025350,0.027541,0.011115,0.053165
52,0.433333,847,0.000274,-0.010567,0.022942,0.016700,0.006845,-0.000383,-0.026007,0.032140,0.011115,0.030169
53,0.441667,848,-0.005967,-0.014837,0.019328,0.024256,0.010458,0.001917,-0.024693,0.031483,0.023270,0.054808
53,0.441667,849,-0.007282,-0.021736,0.019000,0.025899,0.011444,-0.003339,-0.018780,0.027541,0.036411,0.042324
53,0.441667,850,-0.007282,-0.023707,0.019000,0.022285,0.010130,-0.003011,-0.027978,0.024585,0.014729,0.043310
53,0.441667,851,-0.003668,-0.014837,0.015058,0.021628,0.010130,-0.006624,-0.028307,0.021299,0.014072,0.087988
53,0.441667,852,-0.001368,-0.013852,0.019328,0.019328,0.010130,-0.008267,-0.028964,0.021299,0.026884,0.045938
53,0.441667,853,-0.000054,-0.011224,0.018671,0.020314,0.004874,-0.000383,-0.030278,0.024913,0.031483,0.052837
53,0.441667,854,-0.002682,-0.013195,0.019000,0.022285,0.011115,-0.008267,-0.031263,0.032797,0.053494,0.065978
53,0.441667,855,0.000274,-0.008596,0.019657,0.020642,0.015386,-0.008267,-0.023707,0.028527,0.025899,0.068277
53,0.441667,856,-0.002354,-0.019765,0.020971,0.006516,0.019000,-0.007282,-0.026335,0.025570,0.040025,0.059736
53,0.441667,857,-0.005639,-0.019437,0.015058,0.016043,0.018671,-0.005639,-0.026664,0.025242,0.032140,0.052837
53,0.441667,858,-0.003339,-0.019108,0.018671,0.017029,0.023599,-0.004653,-0.024693,0.026556,0.032140,0.051194
53,0.441667,859,-0.002025,-0.015823,0.021956,0.020314,0.018014,-0.004325,-0.028635,0.025899,0.032469,0.056122
53,0.441667,860,0.003231,-0.012538,0.019985,0.022942,0.014401,0.001260,-0.026335,0.028855,0.045938,0.045938
53,0.441667,861,0.002574,-0.012538,0.020314,0.023270,0.012429,0.002902,-0.027321,0.025570,0.021299,0.031812
53,0.441667,862,0.001588,-0.013195,0.019328,0.025242,0.017029,0.007830,-0.027978,0.026227,0.017686,0.034440
53,0.441667,863,-0.000054,-0.010895,0.018671,0.028198,0.006516,0.010787,-0.036848,0.024913,0.009801,0.024913
54,0.450000,864,0.007830,-0.012538,0.019657,0.026227,0.006188,0.010458,-0.022065,0.015058,0.009473,0.019000
54,0.450000,865,-0.000054,-0.014837,0.027870,0.025899,0.003231,0.010130,-0.026664,0.031483,0.003560,0.015715
54,0.450000,866,0.002574,-0.012866,0.016372,0.023270,0.000603,0.010787,-0.026007,0.026227,0.006188,0.026556
54,0.450000,867,0.000603,-0.008267,0.018671,0.028198,0.000603,0.005531,-0.027650,0.026556,0.001260,0.000931
54,0.450000,868,-0.003996,-0.006624,0.019985,0.023270,-0.001040,0.017029,-0.034548,0.024913,-0.002025,-0.006953
54,0.450000,869,-0.007939,-0.000383,0.019328,0.022942,-0.002354,0.011115,-0.023707,0.028855,0.007830,-0.006624
54,0.450000,870,-0.006296,-0.012209,0.025242,0.024585,-0.003996,0.012758,-0.030278,0.024585,0.021299,-0.023050
54,0.450000,871,-0.004982,-0.007939,0.015386,0.023270,-0.010238,0.012429,-0.029621,0.023928,0.005531,0.008487
54,0.450000,872,-0.001368,-0.008267,0.018014,0.024585,0.001260,-0.003011,-0.026993,0.021628,0.016043,-0.000054
54,0.450000,873,-0.012866,-0.005310,0.017686,0.017686,-0.002682,0.009144,-0.033891,0.025242,0.020971,0.018343
54,0.450000,874,-0.002682,-0.014180,0.020642,0.020642,-0.003011,0.006516,-0.030935,0.020971,0.022285,0.019985
54,0.450000,875,-0.003996,-0.005967,0.023270,0.025242,-0.003996,0.008159,-0.028635,0.025570,0.030169,0.004874
54,0.450000,876,-0.003011,-0.008924,0.019985,0.026556,-0.009910,0.010787,-0.028635,0.023928,0.022285,0.026556
54,0.450000,877,-0.004653,-0.008596,0.020642,0.026227,-0.002354,0.008816,-0.035205,0.025570,0.027870,0.030498
54,0.450000,878,0.001260,-0.010895,0.019985,0.025899,0.000931,0.009144,-0.025021,0.028527,0.006188,0.021956
54,0.450000,879,-0.004325,-0.014837,0.029512,0.022613,0.002574,0.004874,-0.027650,0.027870,0.004874,0.009473
55,0.458333,880,-0.002682,-0.012866,0.024913,0.027870,0.004874,0.002245,-0.028635,0.025570,0.028855,0.012101
55,0.458333,881,-0.001368,-0.012209,0.021299,0.023270,0.005531,0.001588,-0.027650,0.025242,0.029512,0.034112
55,0.458333,882,-0.000054,-0.011552,0.023270,0.023928,0.007173,-0.002025,-0.023379,0.021299,0.019328,0.040025
55,0.458333,883,0.002245,-0.017794,0.021628,0.027870,0.009801,-0.004653,-0.028307,0.022613,0.040025,0.041996
55,0.458333,884,0.003231,0.001260,0.017029,0.026884,0.011444,-0.007610,-0.029292,0.022613,0.023270,0.040025
55,0.458333,885,-0.000054,-0.002025,0.024256,0.026556,0.014729,-0.008924,-0.032906,0.021628,0.047581,0.023270
55,0.458333,886,-0.000383,-0.000054,0.020971,0.022942,0.014401,-0.006953,-0.034220,0.022285,0.035426,0.057436
55,0.458333,887,-0.001697,-0.003996,0.022285,0.025570,0.014072,-0.012866,-0.028307,0.019657,0.035754,0.052180
55,0.458333,888,0.000603,-0.006296,0.020642,0.020971,0.022285,-0.015166,-0.027978,0.021956,0.036411,0.034112
55,0.458333,889,0.001260,-0.002682,0.023928,0.022613,0.014401,-0.018451,-0.027978,0.025242,0.016043,0.047581
55,0.458333,890,0.002902,-0.006624,0.020642,0.017357,0.015715,-0.023707,-0.026664,0.023928,0.032469,0.052180
55,0.458333,891,0.000274,-0.007282,0.020971,0.020971,0.010787,-0.022393,-0.028964,0.024913,0.027213,0.042981
55,0.458333,892,0.005859,-0.012209,0.021628,0.020314,0.018014,-0.021736,-0.027321,0.025899,0.020642,0.033126
55,0.458333,893,0.003231,-0.005639,0.020314,0.021299,0.013744,-0.018123,-0.023707,0.020971,0.001588,0.017029
55,0.458333,894,0.001260,-0.007939,0.019000,0.023599,0.009144,-0.015494,-0.027978,0.025899,0.021956,-0.005639
55,0.458333,895,0.003560,-0.005310,0.022613,0.017357,0.008159,-0.018451,-0.026335,0.022942,0.011772,0.021299
56,0.466667,896,0.002574,-0.005639,0.020642,0.023270,0.005859,-0.019765,-0.028307,0.024256,0.011115,0.006516
56,0.466667,897,0.000603,-0.005967,0.019985,0.021956,0.001588,-0.014180,-0.021079,0.024585,0.008487,0.006516
56,0.466667,898,-0.000711,0.002902,0.020642,0.024256,0.003560,-0.008924,-0.026664,0.025899,0.008159,0.005202
56,0.466667,899,0.000603,-0.001368,0.014729,0.026227,0.006188,-0.005310,-0.027650,0.021299,0.017357,-0.026335
56,0.466667,900,-0.000711,-0.001368,0.020314,0.026884,0.003560,-0.005639,-0.028307,0.020642,0.004545,0.009144
56,0.466667,901,-0.000054,-0.001368,0.017029,0.027213,0.009144,-0.004325,-0.030935,0.021956,0.004217,0.003231
56,0.466667,902,-0.002682,-0.001697,0.015386,0.025899,0.009144,-0.000711,-0.033234,0.025570,0.007173,0.010458
56,0.466667,903,0.005202,-0.005967,0.019657,0.024256,0.007173,0.001917,-0.033563,0.016372,0.019000,0.004874
56,0.466667,904,0.003560,0.005202,0.019985,0.022285,0.004874,0.005859,-0.034220,0.021628,0.002574,0.003560
56,0.466667,905,0.004874,0.002245,0.020642,0.021628,0.008816,0.003231,-0.030278,0.021299,0.004874,0.009801
56,0.466667,906,0.003560,-0.002682,0.021956,0.022942,0.007502,0.004874,-0.029949,0.022613,0.001917,0.010787
56,0.466667,907,0.009144,-0.006624,0.018014,0.025570,0.005202,0.006516,-0.025350,0.027213,-0.004653,0.006845
56,0.466667,908,0.003231,-0.009910,0.015386,0.021628,0.007830,0.009144,-0.029949,0.020971,0.026556,0.012758
56,0.466667,909,-0.002354,-0.008267,0.013415,0.028527,0.006845,0.009801,-0.029949,0.024585,-0.010567,0.009144
56,0.466667,910,-0.000711,-0.007610,0.014401,0.017029,0.013744,0.006516,-0.028307,0.022942,0.015058,0.003231
56,0.466667,911,-0.001697,-0.009581,0.017357,0.021956,0.004217,0.001588,-0.022065,0.023928,0.017357,0.019657
57,0.475000,912,-0.004325,-0.009581,0.018343,0.023270,0.005202,0.000603,-0.029292,0.019000,0.020971,0.030169
57,0.475000,913,-0.010895,-0.006953,0.015715,0.025899,0.003560,0.006516,-0.028635,0.021956,0.023270,0.030169
57,0.475000,914,-0.004325,-0.007939,0.014401,0.033454,0.001260,0.011444,-0.029949,0.020971,0.017357,0.033783
57,0.475000,915,-0.003011,-0.008596,0.017029,0.024585,-0.002354,0.018671,-0.030935,0.021299,0.034440,0.045281
57,0.475000,916,-0.002025,-0.007610,0.016043,0.025242,-0.001368,0.008159,-0.028964,0.020642,0.040682,0.057765
57,0.475000,917,0.000274,-0.010567,0.016700,0.026227,0.001588,0.010458,-0.033234,0.020642,0.062364,0.056122
57,0.475000,918,-0.002682,-0.011552,0.021299,0.024256,0.002574,0.010787,-0.031920,0.020314,0.054480,0.039696
57,0.475000,919,-0.000383,-0.013195,0.018014,0.028198,-0.003339,0.008816,-0.032906,0.021628,0.032469,0.065978
57,0.475000,920,0.000274,-0.017137,0.013415,0.021956,0.005859,-0.004325,-0.030935,0.021956,0.026227,0.056122
57,0.475000,921,0.001917,-0.017794,0.012758,0.024585,0.003560,0.003231,-0.029621,0.026556,0.010130,0.038054
57,0.475000,922,-0.004325,-0.008596,0.015386,0.022285,0.007173,0.003560,-0.026664,0.027213,0.009473,0.042324
57,0.475000,923,-0.001368,-0.013523,0.019328,0.014072,0.009801,0.003231,-0.028964,0.025570,0.017029,0.054808
57,0.475000,924,-0.002682,-0.009581,0.015058,0.022613,0.009801,0.001588,-0.028635,0.026227,0.015715,0.045281
57,0.475000,925,-0.002025,-0.008924,0.015386,0.023928,0.008487,0.001917,-0.038819,0.025899,0.011115,0.030169
57,0.475000,926,0.006516,-0.009581,0.015715,0.023928,0.009144,0.001588,-0.024693,0.024256,-0.007939,0.009144
57,0.475000,927,-0.000383,-0.008924,0.007173,0.026884,0.007830,-0.001368,-0.029949,0.020642,0.018014,0.000931
58,0.483333,928,0.001588,-0.010567,0.018671,0.015058,0.007830,-0.002025,-0.031263,0.020314,-0.007939,0.019000
58,0.483333,929,0.000274,-0.006953,0.014729,0.027541,0.012101,-0.003011,-0.030606,0.019328,-0.004325,0.004217
58,0.483333,930,0.000931,-0.009910,0.015715,0.022613,0.011444,-0.000054,-0.028635,0.018343,-0.005310,0.000603
58,0.483333,931,0.000274,-0.007939,0.017357,0.024585,0.010458,-0.006296,-0.030606,0.019000,0.003231,-0.010567
58,0.483333,932,0.004545,-0.002354,0.011115,0.024585,0.009473,-0.006624,-0.030278,0.022285,-0.000383,-0.003996
58,0.483333,933,0.001588,-0.005310,0.017357,0.022613,0.012101,-0.008596,-0.030935,0.021628,-0.009581,-0.005639
58,0.483333,934,0.001588,-0.002682,0.015386,0.021956,0.014072,-0.009253,-0.029949,0.022285,0.006845,-0.014509
58,0.483333,935,-0.001040,-0.004653,0.018343,0.018343,0.008487,-0.007610,-0.027650,0.020314,-0.000711,-0.000383
58,0.483333,936,0.003231,-0.013195,0.017029,0.020314,0.010787,-0.007939,-0.029949,0.016372,-0.007610,-0.005310
58,0.483333,937,0.002245,-0.000054,0.006845,0.022285,0.011444,-0.012209,-0.031592,0.023270,0.013086,-0.000054
58,0.483333,938,-0.001697,-0.004325,0.018343,0.025899,0.006188,-0.013195,-0.032577,0.021299,0.009801,-0.006296
58,0.483333,939,-0.000711,-0.005310,0.015386,0.024585,0.012429,-0.012538,-0.032906,0.021628,0.014729,0.004217
58,0.483333,940,-0.001697,-0.005639,0.017029,0.016700,0.009144,-0.012866,-0.032249,0.020642,0.018671,0.016700
58,0.483333,941,0.002902,-0.018451,0.017029,0.022285,0.008159,-0.011552,-0.030606,0.014401,0.010458,0.009801
58,0.483333,942,-0.001368,-0.005639,0.022285,0.019657,0.008816,-0.012538,-0.032906,0.021299,0.013415,0.014729
58,0.483333,943,-0.001697,-0.009253,0.016372,0.015386,0.011115,-0.013852,-0.030935,0.020314,0.031812,0.038382
59,0.491667,944,-0.002025,-0.009581,0.017357,0.021956,0.007502,-0.017466,-0.032249,0.020642,0.024585,0.028198
59,0.491667,945,-0.001368,-0.008924,0.017686,0.020971,0.006188,-0.010238,-0.036519,0.022613,0.020971,0.039039
59,0.491667,946,-0.003668,-0.010895,0.022942,0.019985,0.002902,-0.012866,-0.031592,0.022285,0.004217,0.039039
59,0.491667,947,-0.000711,-0.008924,0.019000,0.026556,-0.001368,-0.010895,-0.033891,0.025570,0.047909,0.020642
59,0.491667,948,-0.000711,-0.006953,0.017029,0.024585,-0.004325,-0.007939,-0.034220,0.022942,0.035426,0.069591
59,0.491667,949,0.000603,-0.008924,0.017029,0.023270,0.001588,-0.012538,-0.032906,0.019657,0.034440,0.057108
59,0.491667,950,0.001917,-0.017794,0.018014,0.021628,-0.000383,-0.006296,-0.033891,0.016700,0.029841,0.052837
59,0.491667,951,0.000274,-0.003011,0.023270,0.022285,-0.001368,-0.007610,-0.032906,0.022285,0.015058,0.057436
59,0.491667,952,-0.000711,-0.004982,0.019985,0.020314,-0.001040,-0.007939,-0.033891,0.020971,0.027870,0.051851
59,0.491667,953,0.000274,-0.007939,0.021299,0.022285,0.001917,-0.006953,-0.034877,0.019328,0.019985,0.059079
59,0.491667,954,0.002245,-0.009910,0.021628,0.021299,0.005531,-0.006296,-0.034877,0.021628,0.028527,0.040353
59,0.491667,955,-0.002025,-0.006953,0.018014,0.024585,0.005859,-0.006624,-0.032906,0.027870,0.020971,0.039039
59,0.491667,956,-0.001040,-0.008924,0.020314,0.023928,0.010787,-0.009253,-0.031592,0.020642,0.019000,0.031483
59,0.491667,957,-0.002354,-0.008924,0.022285,0.018014,0.015058,-0.012538,-0.032249,0.022613,0.019000,0.027213
59,0.491667,958,-0.001040,-0.011552,0.019000,0.022942,0.016043,-0.011224,-0.030278,0.020314,0.012101,0.008159
59,0.491667,959,-0.000711,-0.010895,0.017357,0.023928,0.016372,-0.008596,-0.027650,0.019328,0.013744,0.007830
60,0.500000,960,-0.007939,-0.009910,0.018014,0.021956,0.018671,-0.005310,-0.036519,0.024913,0.028198,0.019657
60,0.500000,961,0.000603,-0.009253,0.015386,0.022285,0.018343,-0.001697,-0.032577,0.017029,0.013415,0.039368
60,0.500000,962,-0.002354,-0.008596,0.015058,0.028855,0.015715,0.001588,-0.032577,0.021628,0.006188,-0.004325
60,0.500000,963,-0.000711,-0.009581,0.018343,0.023270,0.016700,-0.010238,-0.029621,0.018343,0.010787,-0.003996
60,0.500000,964,-0.000383,-0.009910,0.018014,0.025242,0.013744,0.005531,-0.030606,0.019657,0.002245,-0.003668
60,0.500000,965,0.000931,-0.007282,0.019657,0.022613,0.015386,0.006516,-0.032249,0.019000,0.007173,-0.007282
60,0.500000,966,0.002245,-0.005639,0.029841,0.022285,0.019985,0.010130,-0.032249,0.021299,-0.001697,-0.019437
60,0.500000,967,0.001260,-0.001697,0.019657,0.022613,0.011115,0.012429,-0.031920,0.018014,0.007173,0.000274
60,0.500000,968,0.001260,-0.002354,0.019985,0.017686,0.018671,0.017686,-0.033891,0.017686,0.007502,0.000274
60,0.500000,969,-0.003668,-0.000054,0.020314,0.019000,0.019000,0.008159,-0.034220,0.021956,0.028855,0.013415
60,0.500000,970,0.001260,0.009144,0.018343,0.022613,0.016372,0.009801,-0.034220,0.021628,0.058093,0.021628
60,0.500000,971,0.002574,0.007830,0.019985,0.020971,0.011444,0.009473,-0.033234,0.020971,0.017029,0.008816
60,0.500000,972,0.004874,0.004217,0.020971,0.022942,0.000603,0.007173,-0.033563,0.019328,0.027213,0.021956
60,0.500000,973,0.005531,-0.003339,0.022613,0.019000,0.010130,0.001260,-0.031592,0.018671,0.021628,0.026227
60,0.500000,974,0.003888,-0.005310,0.024913,0.022613,0.008816,0.003231,-0.030278,0.016700,0.026556,0.043310
60,0.500000,975,0.000603,-0.005967,0.022613,0.023928,0.005859,0.002245,-0.027978,0.020314,0.009144,0.080432
61,0.508333,976,-0.002354,-0.009910,0.020971,0.016372,-0.001368,0.002574,-0.028964,0.021628,0.028527,0.064664
61,0.508333,977,0.000274,-0.010238,0.021628,0.020642,-0.008267,-0.008267,-0.030278,0.023270,0.033454,0.048566
61,0.508333,978,-0.000383,-0.006296,0.020642,0.021956,-0.011881,-0.003996,-0.026993,0.024256,0.040353,0.054151
61,0.508333,979,-0.001040,-0.007939,0.021628,0.023270,-0.008924,-0.000711,-0.030935,0.025242,0.036411,0.056779
61,0.508333,980,-0.002354,-0.015166,0.031812,0.020642,-0.006953,-0.000711,-0.026993,0.028527,0.037068,0.047581
61,0.508333,981,-0.001040,-0.015494,0.022613,0.021628,-0.005310,-0.003011,-0.029621,0.024913,0.034769,0.083389
61,0.508333,982,-0.000383,-0.017466,0.022285,0.019657,-0.005639,-0.009253,-0.027321,0.028527,0.033454,0.051523
61,0.508333,983,-0.003339,-0.018123,0.021299,0.021299,-0.002025,-0.003339,-0.031592,0.030169,0.030498,0.045281
61,0.508333,984,-0.007610,-0.013852,0.020642,0.020314,-0.003011,-0.008924,-0.026664,0.032140,0.013744,0.051523
61,0.508333,985,-0.006953,-0.018123,0.015715,0.025899,-0.004653,-0.005639,-0.026993,0.024913,0.060721,0.033783
61,0.508333,986,-0.002682,-0.018123,0.018671,0.031155,-0.000383,-0.007939,-0.026664,0.022613,0.031812,0.056122
61,0.508333,987,-0.003011,-0.013852,0.019657,0.031155,0.000274,-0.013523,-0.029621,0.020642,0.028527,0.035754
61,0.508333,988,0.006188,-0.012209,0.020971,0.028527,-0.004653,-0.008596,-0.026664,0.023270,-0.000711,0.016043
61,0.508333,989,0.000603,-0.012538,0.022613,0.025899,-0.001040,-0.009910,-0.032249,0.021628,-0.001368,0.024256
61,0.508333,990,-0.000383,-0.010238,0.020314,0.025570,-0.000711,-0.006624,-0.032906,0.022285,0.001588,0.016372
61,0.508333,991,0.000603,-0.007939,0.020642,0.026227,0.003560,-0.006296,-0.030606,0.022942,0.010787,0.003888
62,0.516667,992,0.009801,-0.005967,0.018014,0.026227,0.001588,-0.001697,-0.027650,0.026227,-0.014180,-0.006624
62,0.516667,993,-0.008267,-0.003996,0.019000,0.023599,0.003888,-0.000383,-0.037834,0.024256,-0.019765,-0.001368
62,0.516667,994,0.001260,-0.002354,0.020971,0.022613,0.006188,-0.002025,-0.028635,0.024256,-0.017466,-0.008267
62,0.516667,995,-0.001040,-0.003011,0.023599,0.020971,0.005859,-0.000383,-0.027650,0.025899,-0.001697,-0.017466
62,0.516667,996,0.002245,-0.004325,0.018343,0.018343,0.007173,0.004545,-0.027978,0.029512,0.001917,-0.003996
62,0.516667,997,0.004874,-0.002682,0.020642,0.019000,0.009801,0.000931,-0.024364,0.026227,-0.005310,-0.005967
62,0.516667,998,0.005859,-0.003011,0.019657,0.019328,0.015058,0.005202,-0.023707,0.019328,-0.014509,-0.014837
62,0.516667,999,0.004217,0.001588,0.019328,0.021299,0.017029,0.002245,-0.027650,0.026884,-0.015494,-0.010238
62,0.516667,1000,0.002902,-0.005310,0.016700,0.019328,0.016700,0.000603,-0.026993,0.023599,0.009473,0.002245
62,0.516667,1001,-0.000383,-0.008267,0.018014,0.022285,0.005531,0.000931,-0.031920,0.022942,0.010130,0.014401
62,0.516667,1002,0.005859,-0.011552,0.018671,0.020642,0.011444,-0.000383,-0.031592,0.022285,0.017029,0.007502
62,0.516667,1003,-0.004982,-0.013523,0.017686,0.021299,0.007173,-0.001368,-0.032577,0.031155,0.037397,0.028198
62,0.516667,1004,-0.003996,-0.013523,0.018343,0.020642,0.005202,0.000931,-0.029292,0.023928,0.002245,0.031155
62,0.516667,1005,-0.003339,-0.013195,0.019657,0.014729,0.003888,0.001588,-0.028635,0.023599,0.037725,0.038711
62,0.516667,1006,-0.004982,-0.012866,0.017029,0.023928,-0.002682,0.002902,-0.027978,0.022942,0.032469,0.044296
62,0.516667,1007,-0.002354,-0.015494,0.019000,0.020314,0.002245,0.001917,-0.024036,0.022942,0.030826,0.036083
63,0.525000,1008,-0.009253,-0.009581,0.015386,0.023599,-0.001040,0.004545,-0.029949,0.026556,0.022613,0.046924
63,0.525000,1009,-0.007610,-0.014509,0.012429,0.022942,-0.003339,0.003231,-0.028964,0.021956,0.033126,0.028198
63,0.525000,1010,-0.006296,-0.014837,0.021299,0.015386,-0.000054,0.000603,-0.029949,0.023928,0.037068,0.045938
63,0.525000,1011,-0.004982,-0.012866,0.018671,0.021956,-0.001040,0.002574,-0.029949,0.025899,0.030169,0.051194
63,0.525000,1012,0.001588,-0.012209,0.019000,0.019000,0.002902,-0.000711,-0.027321,0.022942,0.026556,0.042981
63,0.525000,1013,0.002902,-0.013523,0.019328,0.018014,0.002574,-0.001040,-0.030278,0.020642,0.032797,0.047909
63,0.525000,1014,0.000931,-0.003011,0.011444,0.019985,0.004874,0.001260,-0.027978,0.021956,0.024585,0.076819
63,0.525000,1015,0.001588,0.000274,0.019985,0.024256,-0.000383,0.001260,-0.025678,0.023270,0.021956,0.051194
63,0.525000,1016,0.000931,-0.000383,0.017357,0.024913,0.005202,0.000603,-0.028964,0.022942,0.027870,0.046595
63,0.525000,1017,0.000603,-0.002682,0.015386,0.022285,0.004217,-0.000383,-0.031263,0.023599,0.027541,0.047909
63,0.525000,1018,0.003231,-0.009910,0.015386,0.023928,0.008487,0.002902,-0.032249,0.020971,0.024585,0.038054
63,0.525000,1019,-0.001040,-0.004982,0.016043,0.029841,0.010458,0.000931,-0.032249,0.025242,0.008816,0.027541
63,0.525000,1020,-0.000711,-0.007939,0.015386,0.021956,0.020642,-0.001040,-0.028307,0.024256,0.014072,0.024913
63,0.525000,1021,-0.000383,-0.012209,0.018343,0.024913,0.015386,-0.002682,-0.018451,0.026884,0.012101,0.023270
63,0.525000,1022,-0.006953,-0.010567,0.017029,0.025570,0.019328,-0.000383,-0.029949,0.035426,0.020971,0.043967
63,0.525000,1023,0.002574,-0.007282,0.013415,0.025242,0.021299,-0.000383,-0.025678,0.025899,-0.004653,0.056451
64,0.533333,1024,0.001260,-0.003011,0.014072,0.031812,0.018014,-0.001040,-0.028964,0.028198,0.002245,0.006188
64,0.533333,1025,0.002902,0.003560,0.015715,0.020314,0.015386,0.004217,-0.026664,0.024256,0.010458,0.017686
64,0.533333,1026,0.005859,0.007830,0.015715,0.022613,0.018671,-0.004982,-0.018451,0.022942,0.012101,0.006188
64,0.533333,1027,0.004217,0.010787,0.016043,0.022613,0.021299,-0.003668,-0.027321,0.022613,-0.005310,0.010458
64,0.533333,1028,0.001260,-0.000383,0.023928,0.024256,0.020642,-0.005310,-0.026993,0.021956,-0.014509,0.011115
64,0.533333,1029,-0.001040,-0.008267,0.017357,0.024585,0.019328,-0.009253,-0.026664,0.021628,-0.001697,-0.004653
64,0.533333,1030,-0.000054,-0.016808,0.019000,0.020971,0.014729,-0.006624,-0.027650,0.023599,-0.002354,-0.001368
64,0.533333,1031,-0.001697,-0.021079,0.015386,0.023928,0.013086,-0.010895,-0.035862,0.027541,0.000931,-0.004982
64,0.533333,1032,-0.002025,-0.014180,0.017357,0.023599,0.012758,-0.010567,-0.025350,0.029184,0.017686,0.003888
64,0.533333,1033,-0.003996,-0.020094,0.025242,0.021956,0.009144,-0.008924,-0.029621,0.028198,0.019657,-0.001040
64,0.533333,1034,0.000274,-0.011224,0.016043,0.021299,0.014072,-0.008596,-0.029621,0.025899,0.019657,0.021956
64,0.533333,1035,0.000931,-0.011224,0.020642,0.027541,0.009801,-0.017137,-0.027321,0.023928,0.016700,0.028527
64,0.533333,1036,0.004217,-0.014509,0.019985,0.027870,0.002574,-0.004982,-0.023707,0.026884,-0.010895,0.010787
64,0.533333,1037,-0.004982,-0.008596,0.020314,0.023928,0.002902,-0.005967,-0.024036,0.028855,-0.009253,0.020971
64,0.533333,1038,-0.001697,-0.015494,0.019000,0.018014,-0.000054,-0.004653,-0.026335,0.024585,0.017686,0.044953
64,0.533333,1039,-0.002025,-0.011552,0.021956,0.025899,-0.001697,-0.002354,-0.027650,0.026227,0.012101,0.032797
65,0.541667,1040,-0.005310,-0.008596,0.018014,0.022942,-0.003668,0.003231,-0.026993,0.027870,0.021628,0.032797
65,0.541667,1041,0.002245,-0.011224,0.018671,0.024256,-0.004325,0.001917,-0.022722,0.024585,0.006516,0.034440
65,0.541667,1042,-0.003996,-0.009910,0.019000,0.025242,0.001260,0.000603,-0.027321,0.025899,0.013415,0.031155
65,0.541667,1043,-0.002354,-0.009253,0.019985,0.019000,0.002245,0.002245,-0.027321,0.025570,0.030498,0.049880
65,0.541667,1044,-0.002354,-0.010895,0.020314,0.025242,0.001917,-0.002025,-0.028964,0.025899,0.028855,0.041010
65,0.541667,1045,-0.002354,-0.010567,0.020642,0.026556,0.001260,0.008816,-0.034548,0.025242,0.033126,0.043310
65,0.541667,1046,-0.001368,-0.022065,0.021299,0.025570,-0.002354,0.006516,-0.028964,0.019657,0.027213,0.047252
65,0.541667,1047,-0.002682,-0.005639,0.009801,0.026227,-0.003011,0.009144,-0.029292,0.023270,0.032797,0.041667
65,0.541667,1048,-0.000054,-0.009253,0.024913,0.026884,-0.006953,0.009144,-0.030278,0.021299,0.030826,0.036411
65,0.541667,1049,0.001917,-0.007939,0.022285,0.026227,0.006516,0.002245,-0.031263,0.020642,0.029841,0.038382
65,0.541667,1050,0.009473,-0.008596,0.021628,0.025242,0.001588,0.005859,-0.030935,0.022613,0.022613,0.035097
65,0.541667,1051,0.007502,-0.016480,0.022942,0.021956,0.003560,0.003888,-0.028635,0.018014,0.015386,0.019657
65,0.541667,1052,0.002574,-0.006296,0.021956,0.023270,0.005859,0.000274,-0.029292,0.025570,0.006188,0.021956
65,0.541667,1053,0.001917,-0.005310,0.021628,0.027213,0.010130,-0.003668,-0.029949,0.022942,0.010130,0.019328
65,0.541667,1054,-0.000054,-0.002354,0.019985,0.026884,0.005202,-0.006296,-0.031592,0.023270,0.006845,0.020314
65,0.541667,1055,-0.011224,0.000274,0.019000,0.022942,0.011772,-0.008267,-0.036519,0.020642,0.006845,0.014072
66,0.550000,1056,0.005202,0.003888,0.019000,0.021299,0.012429,-0.008596,-0.028307,0.016043,0.006516,-0.011881
66,0.550000,1057,0.000931,-0.001040,0.018343,0.026884,0.012758,-0.006624,-0.030606,0.022942,0.012429,-0.016808
66,0.550000,1058,0.002902,0.002574,0.019657,0.016372,0.016700,-0.009253,-0.027978,0.022285,0.002245,0.007830
66,0.550000,1059,0.005531,-0.001697,0.019000,0.024256,0.019000,-0.014180,-0.027321,0.022613,0.005859,-0.006296
66,0.550000,1060,0.000603,-0.005310,0.018014,0.023270,0.019657,-0.006624,-0.032577,0.023928,-0.002354,-0.000383
66,0.550000,1061,-0.002354,-0.006953,0.022285,0.022613,0.018343,-0.007282,-0.026993,0.024913,-0.024364,0.001917
66,0.550000,1062,-0.003996,-0.009910,0.011772,0.025570,0.015715,-0.002025,-0.029949,0.023599,0.017686,-0.028635
66,0.550000,1063,-0.006953,-0.011224,0.018671,0.025242,0.010787,-0.000383,-0.032906,0.022285,0.009144,0.003888
66,0.550000,1064,-0.007282,-0.013195,0.016372,0.025899,0.015386,-0.001040,-0.033563,0.022285,0.017357,-0.000383
66,0.550000,1065,-0.007282,-0.010567,0.014729,0.026227,0.012429,0.001917,-0.033234,0.019657,0.003231,0.003231
66,0.550000,1066,-0.007610,-0.013852,0.017357,0.023599,0.011444,0.001260,-0.033234,0.019657,-0.004982,0.006845
66,0.550000,1067,-0.004325,-0.004325,0.020642,0.018343,0.010458,0.000274,-0.031920,0.023928,0.020314,0.014401
66,0.550000,1068,-0.001368,-0.003339,0.018014,0.024585,0.007502,0.000274,-0.029949,0.022285,0.013086,0.030826
66,0.550000,1069,0.000931,-0.001040,0.017029,0.031155,0.004545,0.003560,-0.029292,0.023599,0.009144,0.012758
66,0.550000,1070,-0.000054,0.001588,0.019328,0.023599,0.006188,0.002902,-0.029949,0.029184,0.021628,0.034112
66,0.550000,1071,0.004545,0.000931,0.014729,0.021956,0.005202,0.001260,-0.028307,0.024256,0.026884,0.046924
67,0.558333,1072,0.000274,-0.000383,0.021956,0.021299,0.007502,0.001588,-0.029292,0.026884,0.024585,0.025899
67,0.558333,1073,-0.001040,-0.002025,0.018343,0.024585,0.010130,-0.000054,-0.026993,0.026884,0.032797,0.050866
67,0.558333,1074,-0.001368,-0.005639,0.018343,0.022285,0.007830,-0.005967,-0.020094,0.026556,0.029512,0.045610
67,0.558333,1075,0.003231,-0.014509,0.017686,0.021299,0.010787,-0.006296,-0.028307,0.026884,0.027541,0.063678
67,0.558333,1076,-0.001697,-0.015166,0.022942,0.020971,0.009801,-0.002682,-0.026664,0.025570,0.017029,0.088974
67,0.558333,1077,-0.003011,-0.017794,0.018014,0.021299,0.007830,0.002245,-0.027650,0.025242,0.018014,0.044296
67,0.558333,1078,-0.002682,-0.016480,0.019657,0.020314,0.003560,0.008487,-0.028307,0.025899,0.031483,0.061378
67,0.558333,1079,0.000603,-0.014837,0.019985,0.022613,0.002902,-0.002025,-0.023707,0.023928,0.032797,0.042324
67,0.558333,1080,0.001917,-0.011224,0.020642,0.023599,0.003231,-0.001368,-0.028964,0.026884,0.064664,0.039039
67,0.558333,1081,0.003560,-0.011881,0.030169,0.022285,0.001917,-0.003011,-0.027978,0.028198,0.018671,0.033126
